-149.940349985377	229.733337402344
-148.600628152271	229.366668701172
-147.261189408229	230
-145.922033705899	229.866668701172
-144.583160997928	230.266662597656
-143.244571236975	229.800003051758
-141.906264375711	229.933334350586
-140.568240366798	230.133331298828
-139.230499162926	229.899993896484
-137.893040716767	229.966674804688
-136.555864981018	229.766662597656
-135.218971908375	230.633331298828
-133.882361451546	229.899993896484
-132.546033563233	229.83332824707
-131.209988196162	229.933334350586
-129.874225303049	229.766662597656
-128.538744836626	230.16667175293
-127.203546749633	230.199996948242
-125.868630994808	229.800003051758
-124.533997524899	230.16667175293
-123.199646292668	229.83332824707
-121.86557725087	229.966659545898
-120.531790352284	229.966659545898
-119.198285549673	229.83332824707
-117.865062795825	230.33332824707
-116.532122043528	230.066665649414
-115.199463245576	230
-113.86708635477	230
-112.53499132392	230.266662597656
-111.203178105836	229.800003051758
-109.871646653337	230.033340454102
-108.540396919252	229.899993896484
-107.209428856415	230.066665649414
-105.878742417668	230.199996948242
-104.548337555856	230.33332824707
-103.218214223828	230.100006103516
-101.888372374446	230.100006103516
-100.558811960579	229.699996948242
-99.2295329350956	230.100006103516
-97.900535250869	230.16667175293
-96.5718188607954	229.966674804688
-95.2433837177556	229.533340454102
-93.9152297746551	230.066665649414
-92.5873569843961	229.933334350586
-91.259765299885	230.066665649414
-89.9324546740451	229.366668701172
-88.605425059796	229.899993896484
-87.2786764100741	230.266662597656
-85.9522086778041	230.033325195313
-84.6260218159394	229.699996948242
-83.3001157774262	229.766662597656
-81.9744905152228	230.199996948242
-80.6491459822845	229.800003051758
-79.3240821315869	229.933334350586
-77.9992989161023	229.866668701172
-76.6747962888115	230.133331298828
-75.3505742027041	230.033340454102
-74.02663261077	229.899993896484
-72.7029714660198	230.066665649414
-71.3795907214488	230.199996948242
-70.0564903300808	230.133331298828
-68.7336702449281	229.933334350586
-67.4111304190237	229.900009155273
-66.0888708053973	229.866668701172
-64.7668913570869	230.300003051758
-63.4451920271395	230
-62.1237727686064	229.733337402344
-60.8026335345476	230.133331298828
-59.4817742780277	229.933334350586
-58.161194952116	229.83332824707
-56.8408955098943	230
-55.5208759044451	230.199996948242
-54.2011360888595	229.766662597656
-52.8816760162291	229.866668701172
-51.5624956396623	229.899993896484
-50.2435949122721	230.066665649414
-48.924973787164	229.966659545898
-47.6066322174723	230
-46.2885701563157	230.033325195313
-44.9707875568379	230.199996948242
-43.6532843721749	229.733337402344
-42.3360605554795	230.100006103516
-41.0191160599011	229.800003051758
-39.7024508386017	230.16667175293
-38.3860648447561	229.633331298828
-37.0699580315235	229.66667175293
-35.754130352096	230.100006103516
-34.4385817596583	229.966674804688
-33.1233122073957	229.766662597656
-31.808321648518	229.633331298828
-30.4936100362201	230.16667175293
-29.179177323721	230.16667175293
-27.8650234642369	230.100006103516
-26.5511484109923	229.866668701172
-25.2375521172165	230.266662597656
-23.9242345361516	230.133331298828
-22.611195621036	230
-21.2984353251213	229.866668701172
-19.9859536016672	229.966659545898
-18.6737504039306	229.966674804688
-17.3618256851849	230.133331298828
-16.0501793987039	229.800003051758
-14.7388114977746	229.766662597656
-13.4277219356762	230.300003051758
-12.116910665705	230
-10.8063776411697	229.766662597656
-9.49612281537192	229.733337402344
-8.18614614162579	230.399993896484
-6.87644757325024	230.100006103516
-5.56702706357289	230
-4.25788456592607	230
-2.9490200336468	232.5
-1.64043342008485	261.933319091797
-0.332124678590658	367.066680908203
0.975906237480602	362.833343505859
2.28365937476505	261.233337402344
3.59113477989006	230.699996948242
4.89833249947429	230.16667175293
6.20525258014372	230.5
7.51189506849953	229.966674804688
8.81826001115022	230.266662597656
10.1243474546956	229.800003051758
11.4301574457185	230.033325195313
12.7356900308175	230.033325195313
14.0409452565579	229.699996948242
15.3459231695207	229.733337402344
16.6506238162698	230
17.9550472433646	230.166656494141
19.2591934973557	229.766662597656
20.5630626247968	229.633331298828
21.8666546722211	230.199996948242
23.1699696861649	229.800003051758
24.4730077131637	230.300003051758
25.7757687997324	230.133331298828
27.078252992385	229.800003051758
28.3804603376347	229.933334350586
29.6823908819821	229.83332824707
30.9840446719269	229.800003051758
32.2854217539602	229.699996948242
33.58652217456	230.199996948242
34.8873459802079	229.733337402344
36.1878932173764	229.633331298828
37.4881639325296	230.166656494141
38.7881581721264	230.133331298828
40.0878759826171	229.966659545898
41.3873174104474	230.066665649414
42.6864825020618	229.966674804688
43.9853713038965	230.733337402344
45.2839838623664	231.699996948242
46.5823202239061	232.699996948242
47.880380434921	236.733337402344
49.1781645418279	241.133331298828
50.4756725910188	244.600006103516
51.7729046289008	244.800003051758
53.0698607018523	244.133331298828
54.3665408562708	244.33332824707
55.6629451385171	244.633331298828
56.9590735949751	245.66667175293
58.2549262719998	246.533325195313
59.5505032159576	247.866668701172
60.8458044731979	248.766662597656
62.1408300900654	248.399993896484
63.4355801128959	249.5
64.7300545880284	248.666656494141
66.024253561789	248.566665649414
67.3181770804992	247.433334350586
68.6118251904713	248.633331298828
69.9051979380091	248.066665649414
71.1982953694234	248.566665649414
72.4911175310042	248.366668701172
73.7836644690446	247.800003051758
75.0759362298249	247.733337402344
76.3679328596207	247.699996948242
77.6596544047064	247.066665649414
78.9511009113439	246.899993896484
80.2422724257901	246.633331298828
81.5331689943009	246.233337402344
82.8237906631196	246
84.1141374784846	245.433334350586
85.4042094866332	245.800003051758
86.6940067337902	245.66667175293
87.9835292661711	245.366668701172
89.272777129999	246
90.5617503714757	245.5
91.8504490368025	245.533340454102
93.1388731721835	245.800003051758
94.4270228238021	246.866668701172
95.7148980378368	246.399993896484
97.0024988604732	246
98.2898253378801	246.399993896484
99.5768775162172	246.16667175293
100.863655441651	247.233337402344
102.150159160325	247.066665649414
103.436388718391	246.366668701172
104.722344161986	246.566665649414
106.008025537244	247.533325195313
107.293432890294	247.733337402344
108.578566267255	247.566665649414
109.863425714241	247.899993896484
111.148011277363	247.633331298828
112.432323002721	247.733337402344
113.716360936412	248.199996948242
115.000125124529	248.366668701172
116.283615613148	248.66667175293
117.566832448357	248.733337402344
118.849775676218	248.633331298828
120.1324453428	248.733337402344
121.414841494163	249.399993896484
122.696964176355	249.033325195313
123.978813435431	249.399993896484
125.26038931742	249.800003051758
126.541691868367	249.800003051758
127.822721134295	249.966674804688
129.103477161224	249.5
130.383959995175	250.800003051758
131.664169682149	251.133331298828
132.944106268154	250.733337402344
134.22376979919	250.633331298828
135.503160321238	249.933334350586
136.782277880295	251.399993896484
138.06112252233	251.600006103516
139.339694293321	251.933334350586
140.617993239232	251.433334350586
141.896019406019	251.399993896484
143.173772839639	252.966674804688
144.451253586038	252.933334350586
145.728461691161	253.266662597656
147.005397200939	253.566665649414
148.282060161305	253.600006103516
149.55845061818	254.966674804688
150.834568617477	254.899993896484
152.110414205105	254.300003051758
153.385987426978	254.899993896484
154.661288328988	255.466674804688
155.936316957027	254.733337402344
157.211073356979	254.66667175293
158.485557574728	254.366668701172
159.759769656141	254.100006103516
161.033709647093	253.733337402344
162.307377593442	255.433334350586
163.580773541037	255.600006103516
164.853897535736	254.899993896484
166.126749623378	255.633331298828
167.399329849794	255.466674804688
168.671638260823	254.466674804688
169.943674902282	254.033340454102
171.215439819997	254.433334350586
172.486933059769	253.966674804688
173.758154667415	254.533325195313
175.029104688727	254.933334350586
176.299783169499	256.233337402344
177.57019015552	257.200012207031
178.840325692575	257.600006103516
180.110189826432	257
181.379782602861	256.266662597656
182.649104067627	256.600006103516
183.918154266487	256.299987792969
185.186933245191	256.899993896484
186.455441049479	256.533325195313
187.723677725095	256.5
188.991643317772	256.033325195313
190.259337873228	255.600006103516
191.526761437186	255.566665649414
192.793914055363	256.700012207031
194.060795773463	255.566665649414
195.327406637188	254.199996948242
196.593746692237	254.366668701172
197.859815984295	254.699996948242
199.125614559045	253.866668701172
200.391142462165	253.333343505859
201.656399739326	252.766662597656
202.921386436188	253.33332824707
204.186102598419	254.366668701172
205.450548271665	254.266662597656
206.714723501571	254.399993896484
207.978628333781	253.866668701172
209.242262813924	254.66667175293
210.505626987636	254.033340454102
211.768720900531	253.933334350586
213.031544598229	253.633331298828
214.294098126341	253.83332824707
215.556381530464	253.133331298828
216.818394856203	254.266662597656
218.080138149146	254.699996948242
219.341611454875	254.633331298828
220.602814818972	254.866668701172
221.863748287012	254.433334350586
223.12441190456	254.266662597656
224.384805717177	254.633331298828
225.644929770416	255.466674804688
226.904784109828	255.233337402344
228.164368780958	255.300003051758
229.423683829334	255.399993896484
230.682729300496	253.966674804688
231.941505239961	252.966674804688
233.20001169325	253.133331298828
234.458248705877	254.033340454102
235.716216323346	253.16667175293
236.973914591155	251.733337402344
238.231343554799	252.033325195313
239.48850325977	251.966659545898
240.745393751547	252.566665649414
242.002015075601	251.899993896484
243.25836727741	251.800003051758
244.514450402428	251.466674804688
245.770264496124	250.933334350586
247.025809603939	251.066665649414
248.281085771322	252.5
249.536093043711	252.366668701172
250.790831466543	251.5
252.045301085241	251.199996948242
253.29950194523	251.266662597656
254.55343409192	250.466659545898
255.807097570722	250.399993896484
257.060492427041	250.733337402344
258.31361870627	250.199996948242
259.566476453801	250.533340454102
260.81906571502	249.899993896484
262.071386535304	249.766662597656
263.323438960027	249.933334350586
264.575223034556	249.566665649414
265.826738804248	249.16667175293
267.07798631446	249.033325195313
268.328965610539	249.133331298828
269.579676737829	248.899993896484
270.830119741667	248.033340454102
272.080294667377	248.300003051758
273.330201560291	248.066665649414
274.579840465723	247.399993896484
275.829211428986	247.800003051758
277.078314495383	248.800003051758
278.327149710218	248.366668701172
279.575717118782	248.699996948242
280.82401676637	247.933334350586
282.07204869825	249.566665649414
283.319812959713	250.966659545898
284.567309596019	253.433334350586
285.814538652433	254.600006103516
287.061500174218	255.233337402344
288.308194206618	255.433334350586
289.554620794886	253.699996948242
290.800779984258	254
292.046671819966	253.33332824707
293.29229634724	253.066665649414
294.537653611304	253.199996948242
295.782743657365	252.66667175293
297.027566530643	252.699996948242
298.272122276334	252.133331298828
299.516410939641	251.800003051758
300.760432565752	252.899993896484
302.004187199851	253.800003051758
303.24767488712	252.866668701172
304.490895672731	252.899993896484
305.733849601856	252.466659545898
306.97653671965	252.600006103516
308.218957071273	252.533325195313
309.461110701874	251.133331298828
310.702997656589	250.933334350586
311.944617980567	252.266662597656
313.185971718929	252.366668701172
314.427058916808	251.899993896484
315.667879619324	252.399993896484
316.908433871582	252.533340454102
318.148721718696	253.266662597656
319.388743205761	254.033340454102
320.628498377884	254.933334350586
321.867987280142	255.533325195313
323.107209957627	255.600006103516
324.346166455414	256.600006103516
325.584856818575	256
326.823281092168	255.933334350586
328.061439321262	255.699996948242
329.299331550911	256.300018310547
330.536957826151	256.5
331.774318192038	256.466674804688
333.011412693596	256.200012207031
334.248241375859	256.933349609375
335.484804283852	256.700012207031
336.721101462587	256.433319091797
337.957132957083	256.366668701172
339.192898812343	256.433319091797
340.428399073365	256.133331298828
341.663633785145	257.266662597656
342.898602992667	257.866668701172
344.133306740913	257.533325195313
345.367745074863	257.200012207031
346.601918039484	258.433349609375
347.835825679743	258
349.069468040591	258.766662597656
350.302845166985	259.5
351.535957103869	260
352.768803896185	259.899993896484
354.001385588864	260.466674804688
355.23370222684	260.700012207031
356.465753855025	261.533325195313
357.697540518343	260.833312988281
358.929062261704	262.266662597656
360.160319130007	264.166656494141
361.391311168154	264.566650390625
362.62203842104	265.399993896484
363.852500933544	266.200012207031
365.082698750551	267.100006103516
366.312631916933	269.700012207031
367.542300477565	270.666656494141
368.771704477302	271.233337402344
370.000843961003	274.633331298828
371.229718973516	278.100006103516
372.458329559692	279.399993896484
373.686675764368	282.700012207031
374.914757632373	283.299987792969
376.142575208534	286.033325195313
377.370128537676	291.100006103516
378.597417664612	298.866668701172
379.824442634149	307.833343505859
381.051203491095	320.033325195313
382.277700280244	349.833343505859
383.503933046385	407.266662597656
384.729901834304	475
385.955606688786	471.066650390625
387.1810476546	388.133331298828
388.406224776511	310.933319091797
389.631138099289	278.433349609375
390.855787667682	268.200012207031
392.080173526443	263.766662597656
393.304295720314	263.5
394.528154294031	263.566680908203
395.751749292335	264.933319091797
396.975080759942	268.733337402344
398.198148741574	272.799987792969
399.420953281951	277.033325195313
400.643494425776	284.133331298828
401.865772217755	299.366668701172
403.087786702581	322.666656494141
404.309537924944	365.733337402344
405.531025929535	456.033325195313
406.752250761027	585.966674804688
407.973212464094	630.36669921875
409.193911083403	533.799987792969
410.414346663615	414.933319091797
411.634519249387	345.799987792969
412.854428885365	310.399993896484
414.074075616193	292.233337402344
415.293459486512	280.899993896484
416.512580540951	274.333343505859
417.731438824132	270.166656494141
418.950034380683	268.233337402344
420.168367255211	266.333343505859
421.386437492326	265.600006103516
422.604245136631	264.100006103516
423.821790232721	263.266662597656
425.039072825187	262.600006103516
426.25609295861	262.600006103516
427.472850677573	262.200012207031
428.68934602665	261.866668701172
429.905579050399	261.866668701172
431.12154979339	262.100006103516
432.337258300173	262.700012207031
433.5527046153	262.333343505859
434.76788878331	263.733337402344
435.982810848748	264
437.197470856135	264.666656494141
438.411868850004	264.633331298828
439.626004874872	264.966674804688
440.839878975252	265.666656494141
442.053491195656	266.766662597656
443.266841580581	268.766662597656
444.479930174523	271.5
445.692757021978	270.199981689453
446.905322167426	270.133331298828
448.117625655347	272.466674804688
449.329667530213	275.200012207031
450.541447836491	277.266662597656
451.75296661864	279.433349609375
452.96422392112	280.799987792969
454.175219788374	282.100006103516
455.385954264851	283.5
456.596427394984	285.733337402344
457.80663922321	283.066680908203
459.016589793948	278.333343505859
460.226279151624	279.066650390625
461.435707340648	277.399993896484
462.644874405428	273.066650390625
463.853780390373	271.966674804688
465.06242533987	269.733337402344
466.270809298312	268.233337402344
467.478932310089	267.866668701172
468.686794419577	265.866668701172
469.894395671149	263.833343505859
471.10173610917	261.200012207031
472.308815778007	258.933319091797
473.515634722013	256.366668701172
474.722192985531	255.366668701172
475.928490612913	253.733337402344
477.134527648498	252.366668701172
478.34030413661	252.366668701172
479.545820121583	253.866668701172
480.751075647736	253.366668701172
481.95607075938	251.566665649414
483.160805500825	250.83332824707
484.365279916377	251.466659545898
485.569494050333	251.766662597656
486.773447946981	252
487.977141650608	252.033325195313
489.180575205495	252.233337402344
490.383748655918	251.533325195313
491.586662046134	251.533325195313
492.789315420418	251.766662597656
493.991708823021	252.16667175293
495.193842298195	251.83332824707
496.395715890185	252.300003051758
497.597329643226	252.933334350586
498.798683601551	252.399993896484
499.999777809394	251.766662597656
501.200612310973	251.533340454102
502.401187150501	251.566665649414
503.60150237219	252.300003051758
504.801558020246	252.366668701172
506.001354138861	253.433334350586
507.200890772234	254.633331298828
508.400167964551	256
509.59918575999	258.566650390625
510.797944202726	261.600006103516
511.996443336927	266.133331298828
513.194683206761	274.399993896484
514.39266385638	284.799987792969
515.59038532994	300.666656494141
516.787847671586	325.533325195313
517.985050925456	367.133331298828
519.181995135688	425.833343505859
520.378680346408	471.066680908203
521.575106601738	468.633331298828
522.771273945796	429.299987792969
523.967182422692	380.133331298828
525.162832076535	339.033325195313
526.358222951419	314.333343505859
527.553355091447	300.399993896484
528.748228540693	288.933349609375
529.942843343252	280.933349609375
531.137199543193	275.666656494141
532.33129718459	272.133331298828
533.525136311504	269.166656494141
534.718716968001	267.433319091797
535.912039198127	265.200012207031
537.10510304593	260.666656494141
538.297908555458	259.866668701172
539.490455770743	259.533325195313
540.682744735813	259.100006103516
541.874775494692	257.966674804688
543.066548091406	257.433349609375
544.25806256996	257.433349609375
545.449318974361	256.466674804688
546.640317348617	256.366668701172
547.831057736716	255.266662597656
549.021540182652	253.733337402344
550.211764730409	254.199996948242
551.401731423964	254.233337402344
552.591440307288	254.766662597656
553.780891424347	254.83332824707
554.970084819107	254.633331298828
556.159020535519	254.66667175293
557.347698617533	253.766662597656
558.536119109089	253.766662597656
559.724282054131	254.66667175293
560.912187496591	254.533325195313
562.099835480389	254.133331298828
563.287226049451	254.600006103516
564.474359247687	255.333343505859
565.661235119009	254.966659545898
566.847853707321	255.766662597656
568.034215056522	256.100006103516
569.220319210497	256.466674804688
570.406166213137	257.633331298828
571.591756108321	257.166656494141
572.777088939924	257.166656494141
573.962164751813	256.633331298828
575.146983587855	256.399993896484
576.3315454919	256.066680908203
577.515850507806	256.066680908203
578.699898679419	254.933334350586
579.883690050575	253.66667175293
581.067224665111	252.899993896484
582.250502566849	254.100006103516
583.433523799622	255.966659545898
584.61628840724	255.83332824707
585.798796433518	256.133331298828
586.981047922261	257.133331298828
588.163042917265	257.166656494141
589.344781462328	257.100006103516
590.526263601234	256.799987792969
591.707489377774	257.366668701172
592.888458835715	257
594.069172018832	256.033325195313
595.249628970894	256.133331298828
596.429829735655	256.966674804688
597.609774356872	257.966674804688
598.789462878294	257.299987792969
599.968895343661	257.033325195313
601.148071796712	257.533325195313
602.326992281176	257.066650390625
603.50565684078	256.466674804688
604.684065519245	254.66667175293
605.862218360279	253.399993896484
607.040115407595	252.83332824707
608.217756704898	251.466659545898
609.395142295877	249.900009155273
610.572272224229	249.233337402344
611.749146533634	249.033325195313
612.925765267779	249.633331298828
614.102128470331	251.100006103516
615.278236184962	250.633331298828
616.454088455336	250.699996948242
617.629685325106	250.800003051758
618.805026837922	251.033325195313
619.980113037435	250.5
621.154943967278	250.066665649414
622.329519671089	250.166656494141
623.503840192497	250.533325195313
624.67790557512	250.800003051758
625.851715862578	250.933334350586
627.025271098484	251.366668701172
628.19857132644	251.100006103516
629.371616590048	251.866668701172
630.544406932899	252.33332824707
631.716942398584	252.300003051758
632.889223030684	251.866668701172
634.061248872777	251.633331298828
635.233019968432	251.933334350586
636.40453636122	252.33332824707
637.575798094694	251.66667175293
638.746805212414	250.433334350586
639.917557757926	250.66667175293
641.088055774772	249.600006103516
642.258299306489	249.600006103516
643.42828839661	248.66667175293
644.59802308866	248.5
645.767503426157	248.100006103516
646.936729452619	246.600006103516
648.105701211554	246.233337402344
649.274418746462	246.5
650.442882100842	245.433334350586
651.611091318189	244.83332824707
652.779046441984	243.83332824707
653.94674751571	244.433334350586
655.11419458284	244.566665649414
656.281387686843	244.33332824707
657.448326871184	243.899993896484
658.61501217932	243.83332824707
659.781443654702	244.066665649414
660.947621340774	243.966659545898
662.113545280983	243.733337402344
663.279215518761	244.466659545898
664.444632097532	244.33332824707
665.609795060729	243.699996948242
666.774704451763	243.766662597656
667.939360314048	243.33332824707
669.103762690992	243.699996948242
670.267911625994	244.199996948242
671.43180716245	244.16667175293
672.59544934375	244.16667175293
673.758838213278	243.533325195313
674.921973814412	244.16667175293
676.084856190521	243.433334350586
677.247485384983	243.766662597656
678.409861441146	244.133331298828
679.571984402374	244.566665649414
680.733854312011	243.666656494141
681.895471213409	243.800003051758
683.056835149899	244.066665649414
684.217946164822	242.733337402344
685.378804301499	243.766662597656
686.539409603253	244.066665649414
687.699762113401	243.933334350586
688.859861875257	243.433334350586
690.019708932119	242.866668701172
691.179303327294	242.899993896484
692.338645104066	242.833343505859
693.497734305732	242.933334350586
694.656570975569	242.533325195313
695.815155156855	242.66667175293
696.973486892862	243.16667175293
698.131566226852	243.266662597656
699.289393202087	243.399993896484
700.446967861824	244.133331298828
701.604290249308	244.199996948242
702.761360407782	243.933334350586
703.918178380487	243.633331298828
705.074744210649	243.699996948242
706.231057941493	243.899993896484
707.387119616247	244.133331298828
708.542929278119	244.266662597656
709.698486970324	244.33332824707
710.85379273606	244.233337402344
712.008846618522	243.266662597656
713.163648660912	243.066665649414
714.318198906412	242.966659545898
715.4724973982	243.233337402344
716.626544179452	243.533325195313
717.780339293345	242.699996948242
718.933882783031	243.433334350586
720.087174691679	243.5
721.240215062437	243.633331298828
722.393003938452	243.766662597656
723.54554136287	244.600006103516
724.697827378822	244.933334350586
725.849862029439	245.16667175293
727.001645357848	245.399993896484
728.153177407164	244.899993896484
729.304458220505	244.766662597656
730.45548784098	244.233337402344
731.606266311687	244.699996948242
732.756793675725	244.800003051758
733.907069976186	244.533325195313
735.057095256156	244.866668701172
736.20686955871	244.966674804688
737.356392926925	245.566665649414
738.505665403874	246.233337402344
739.654687032615	246.133331298828
740.803457856204	245.533325195313
741.951977917699	246.033340454102
743.100247260142	246.600006103516
744.248265926577	246.466659545898
745.396033960039	246.5
746.543551403551	246.766662597656
747.690818300148	247.300003051758
748.837834692836	247.233337402344
749.984600624639	247.566665649414
751.131116138558	247.633331298828
752.277381277592	248.16667175293
753.423396084745	247.866668701172
754.569160602999	247.800003051758
755.714674875347	247.966674804688
756.859938944763	248
758.004952854223	247.399993896484
759.149716646694	247.33332824707
760.294230365137	247.566665649414
761.438494052509	247.16667175293
762.582507751769	247
763.726271505851	247
764.869785357704	246.16667175293
766.013049350259	245.800003051758
767.156063526445	245.233337402344
768.298827929184	244.899993896484
769.4413426014	245.133331298828
770.583607585999	244.800003051758
771.725622925888	244.566665649414
772.867388663971	243.966659545898
774.008904843144	243.866668701172
775.150171506295	244.100006103516
776.291188696313	243.866668701172
777.431956456068	244.300003051758
778.57247482844	245
779.712743856298	245.066665649414
780.852763582496	245.600006103516
781.992534049901	245.899993896484
783.132055301358	245.766662597656
784.271327379712	247
785.410350327807	245.866668701172
786.549124188473	245.666656494141
787.687649004541	245.466674804688
788.825924818836	245.433334350586
789.963951674174	245.300003051758
791.101729613364	244.600006103516
792.239258679221	244.533325195313
793.376538914535	243.366668701172
794.513570362112	242.866668701172
795.650353064733	242.733337402344
796.78688706519	242.800003051758
797.923172406258	242.83332824707
799.05920913071	242.600006103516
800.194997281314	242.133331298828
801.330536900832	243.533325195313
802.465828032025	242.966674804688
803.600870717639	243
804.73566500042	242.199996948242
805.870210923112	243.233337402344
807.004508528444	242.899993896484
808.138557859147	242.83332824707
809.272358957949	242.5
810.405911867559	243.533340454102
811.539216630697	243.300003051758
812.67227329007	243.533340454102
813.805081888372	243.266662597656
814.937642468305	243.5
816.069955072557	245.16667175293
817.202019743813	244.466674804688
818.333836524753	244.533340454102
819.465405458049	243.433334350586
820.596726586369	243.966674804688
821.72779995238	244.233337402344
822.858625598732	244.633331298828
823.989203568083	244.766662597656
825.119533903072	244.666656494141
826.249616646345	244.233337402344
827.379451840535	243.966674804688
828.509039528271	243.366668701172
829.638379752178	243.533325195313
830.767472554873	243.133331298828
831.896317978973	242.966659545898
833.024916067078	242.733337402344
834.153266861795	242.633331298828
835.281370405721	242.066665649414
836.409226741444	241.33332824707
837.536835911549	241.733337402344
838.664197958617	241.433334350586
839.791312925221	241.300003051758
840.918180853932	241.399993896484
842.04480178731	241.366668701172
843.171175767917	241.600006103516
844.297302838299	241.266662597656
845.423183041009	240.83332824707
846.548816418586	240.5
847.674203013563	240.366668701172
848.799342868476	240.766662597656
849.924236025842	240.233337402344
851.048882528186	240.633331298828
852.173282418019	240.566665649414
853.297435737846	240.33332824707
854.421342530179	240.733337402344
855.545002837506	240.399993896484
856.668416702321	240.966659545898
857.791584167114	240.633331298828
858.914505274362	240.566665649414
860.037180066541	240.466674804688
861.159608586118	240.133331298828
862.281790875564	240.066665649414
863.40372697733	240.066665649414
864.525416933873	240.100006103516
865.646860787641	241.333343505859
866.768058581071	241.233337402344
867.889010356608	240.600006103516
869.009716156679	240.766662597656
870.130176023706	240.033340454102
871.250390000117	240.066665649414
872.370358128321	240.166656494141
873.490080450729	239.766662597656
874.609557009743	240.066665649414
875.728787847762	239.899993896484
876.847773007181	239.466674804688
877.966512530389	239.66667175293
879.085006459761	240.16667175293
880.203254837677	239.733337402344
881.321257706509	240.266662597656
882.43901510862	239.933334350586
883.556527086373	239.266662597656
884.67379368212	238.933334350586
885.79081493821	239.633331298828
886.907590896987	240.033325195313
888.024121600789	240.300003051758
889.140407091946	239.399993896484
890.256447412791	239.033325195313
891.372242605639	239.233337402344
892.487792712811	239.66667175293
893.603097776616	239.266662597656
894.718157839355	239.333343505859
895.832972943337	240.100006103516
896.947543130849	239.83332824707
898.061868444183	239.699996948242
899.175948925615	239.766662597656
900.289784617436	239.866668701172
901.403375561907	239.633331298828
902.516721801301	239.399993896484
903.629823377873	239.433334350586
904.74268033389	239.600006103516
905.855292711594	239.466659545898
906.967660553228	239.733337402344
908.079783901041	239.533325195313
909.191662797258	240
910.303297284113	240.433334350586
911.414687403829	239.66667175293
912.525833198623	239.5
913.636734710705	239.066665649414
914.747391982283	239.5
915.857805055565	238.966674804688
916.967973972735	239.33332824707
918.077898775994	239.233337402344
919.18757950752	239.566665649414
920.297016209495	239.433334350586
921.406208924095	239.5
922.515157693489	239.199996948242
923.623862559839	239.33332824707
924.732323565299	239.600006103516
925.840540752028	239.199996948242
926.948514162171	239.533325195313
928.056243837865	239.733337402344
929.163729821253	241.066665649414
930.270972154462	240.899993896484
931.377970879614	241.066665649414
932.484726038836	241.233337402344
933.591237674238	240.699996948242
934.69750582793	241.733337402344
935.803530542014	241.766662597656
936.90931185859	242.033340454102
938.014849819751	242.466674804688
939.120144467583	243.83332824707
940.225195844166	243.866668701172
941.330003991576	243.966674804688
942.434568951891	244.466659545898
943.538890767166	244.233337402344
944.642969479469	245
945.746805130853	244.566665649414
946.850397763363	244.16667175293
947.953747419051	244.5
949.056854139945	244
950.159717968085	244.733337402344
951.262338945498	243.899993896484
952.364717114203	243.899993896484
953.466852516219	243.966674804688
954.568745193556	244.16667175293
955.670395188222	243.233337402344
956.771802542212	242.066665649414
957.872967297525	243.366668701172
958.973889496154	243.533325195313
960.074569180076	244.133331298828
961.175006391275	244
962.27520117172	244.300003051758
963.375153563386	243.300003051758
964.474863608226	243.633331298828
965.574331348205	243.399993896484
966.673556825267	243.566665649414
967.772540081367	243.800003051758
968.871281158439	243.766662597656
969.969780098424	243.633331298828
971.068036943246	243.766662597656
972.166051734834	243.733337402344
973.263824515105	243.433334350586
974.361355325973	243.600006103516
975.458644209348	244.33332824707
976.555691207132	244.600006103516
977.652496361222	243.966674804688
978.749059713512	243.633331298828
979.845381305889	243.366668701172
980.941461180231	242.933334350586
982.037299378414	242.866668701172
983.132895942314	242.800003051758
984.228250913793	243.199996948242
985.323364334707	242.766662597656
986.418236246918	242.199996948242
987.51286669227	242
988.607255712607	242.033340454102
989.701403349767	242.133331298828
990.795309645587	241.699996948242
991.888974641889	240.399993896484
992.982398380496	240.866668701172
994.075580903229	240.199996948242
995.168522251896	239.866668701172
996.261222468303	239.566665649414
997.353681594253	239.16667175293
998.445899671535	239.100006103516
999.537876741944	238.600006103516
1000.62961284726	238.533325195313
1001.72110802927	238.233337402344
1002.81236232974	238.399993896484
1003.90337579045	238.16667175293
1004.99414845315	238.633331298828
1006.08468035959	239.466659545898
1007.17497155154	238.399993896484
1008.26502207074	238.433334350586
1009.35483195894	237.966674804688
1010.44440125785	238.033325195313
1011.53373000923	237.733337402344
1012.62281825479	237.966674804688
1013.71166603626	237.800003051758
1014.80027339534	237.733337402344
1015.88864037375	237.566665649414
1016.97676701318	237.399993896484
1018.06465335535	237.466674804688
1019.15229944194	237.566665649414
1020.23970531464	237.466659545898
1021.32687101513	237.199996948242
1022.41379658508	236.699996948242
1023.50048206618	237.5
1024.58692750009	237.366668701172
1025.67313292846	237.266662597656
1026.75909839295	236.433334350586
1027.84482393521	236.766662597656
1028.9303095969	236.33332824707
1030.01555541964	236.199996948242
1031.10056144507	236.066665649414
1032.18532771481	235.733337402344
1033.26985427051	235.633331298828
1034.35414115376	235.699996948242
1035.43818840618	236.033325195313
1036.52199606939	235.899993896484
1037.60556418497	235.866668701172
1038.68889279454	235.699996948242
1039.77198193967	235.5
1040.85483166196	235.5
1041.93744200298	235.466674804688
1043.01981300432	235.433334350586
1044.10194470753	235.233337402344
1045.18383715419	235.733337402344
1046.26549038586	235.366668701172
1047.34690444408	235.566665649414
1048.42807937041	234.966659545898
1049.50901520639	235.033340454102
1050.58971199355	235.66667175293
1051.67016977344	235.866668701172
1052.75038858757	235.033325195313
1053.83036847747	235.233337402344
1054.91010948465	235.199996948242
1055.98961165062	235
1057.0688750169	234.699996948242
1058.14789962498	234.899993896484
1059.22668551635	235.100006103516
1060.30523273251	235.16667175293
1061.38354131494	234.800003051758
1062.46161130511	235.266662597656
1063.53944274451	234.800003051758
1064.6170356746	234.633331298828
1065.69439013684	234.699996948242
1066.7715061727	234.566665649414
1067.84838382361	235.066665649414
1068.92502313104	234.5
1070.00142413641	234.5
1071.07758688118	234.233337402344
1072.15351140677	234.433334350586
1073.22919775459	233.766662597656
1074.30464596609	233.766662597656
1075.37985608266	233.899993896484
1076.45482814572	234.300003051758
1077.52956219668	234.16667175293
1078.60405827693	233.800003051758
1079.67831642787	233.699996948242
1080.75233669087	233.566665649414
