1602.5	1211.73	1877.09	1795.95	1346.96	1265.82	1345.16	1173.86
1601.12	1173.86	1891.52	1740.05	1366.8	1247.79	1300.08	1179.27
1599.73	1200.69	1880.36	1770.39	1371.96	1296.24	1344.92	1215.12
1598.34	1232.92	1883.63	1768.27	1369.92	1263.57	1342.88	1180.65
1596.96	1214.68	1876.09	1789.58	1328.22	1214.68	1342.64	1194.86
1595.57	1210.86	1810.89	1758.63	1347.8	1295.55	1355.01	1176.63
1594.18	1219.65	1915.05	1751.11	1370.98	1266.49	1376.39	1194.43
1592.79	1176.21	1857.07	1790.43	1356.33	1259.06	1354.53	1217.64
1591.4	1185	1869.35	1743.29	1359.69	1269.64	1327.27	1179.6
1590.02	1215.4	1852.81	1789.79	1418.87	1255.01	1350.44	1173.99
1588.63	1258.39	1884.89	1775.07	1335.8	1283.59	1310.6	1198.98
1587.24	1198.77	1832.35	1789.15	1337.36	1258.17	1313.96	1204.17
1585.85	1223.75	1846.42	1774.44	1374.92	1317.33	1324.53	1167.96
1584.46	1187.54	1891.07	1750.73	1374.67	1306.3	1345.88	1201.94
1583.07	1212.52	1860.15	1757.61	1381.62	1243.1	1378.03	1167.54
1581.68	1208.7	1874.21	1764.49	1347.2	1287.85	1350.8	1210.5
1580.29	1197.7	1807.34	1751.59	1370.34	1233.67	1330.78	1188.71
1578.9	1233.45	1891.52	1726.11	1346.72	1292.78	1301.77	1247.83
1577.51	1166.71	1880.4	1752.76	1314.12	1265.58	1341.09	1188.28
1576.12	1198.86	1907.03	1741.67	1360.62	1279.74	1313.89	1180.88
1574.73	1222	1865.35	1797.06	1322.64	1277.71	1322.64	1205.83
1573.34	1221.79	1825.49	1750.03	1379.9	1281.08	1336.78	1193.04
1571.94	1198.21	1839.54	1765.88	1343.72	1271.87	1325.76	1187.44
1570.55	1187.22	1878.72	1774.55	1374.02	1294.99	1311.16	1237.51
1569.16	1210.36	1849.66	1758.07	1357.61	1246.27	1300.15	1190.6
1567.77	1224.51	1887.03	1770.33	1398.66	1298.12	1326.85	1202.96
1566.37	1193.77	1865.15	1805.91	1342.77	1272.76	1323.02	1204.54
1564.98	1227.66	1814.56	1809.18	1355.09	1279.71	1380.22	1270.73
1563.59	1184.37	1862.69	1785.53	1356.64	1254.36	1358.44	1178.99
1562.2	1203.9	1880.3	1806.74	1361.78	1272.07	1345.64	1189.54
1560.8	1227	1844.09	1792.07	1366.92	1262.88	1347.19	1255.7
1559.41	1244.72	1872.46	1820.44	1418.69	1303.9	1370.26	1277
1558.01	1283.95	1915.16	1855.98	1481.2	1326.98	1413.06	1244.49
1556.62	1267.58	1990.12	1861.03	1489.9	1367.98	1418.18	1278.34
1555.22	1244.05	1882.21	1871.45	1412.55	1292.45	1330.09	1236.88
1553.83	1211.57	1919.51	1829.9	1394.38	1310.14	1390.79	1245.62
1552.43	1232.85	1888.71	1759.69	1392.34	1304.53	1356.5	1197.02
1551.04	1227.26	1832.83	1745.04	1358.05	1268.47	1329.38	1207.55
1549.64	1164.35	1866.54	1775.18	1352.43	1275.41	1321.98	1193.01
1548.25	1208.91	1907.39	1789.19	1345.03	1298.46	1382.64	1207.12
1546.85	1206.91	1846.17	1760.22	1355.53	1237.35	1384.18	1178.25
1545.46	1231.75	1806.45	1817.2	1333.8	1253.24	1328.43	1167.3
1544.06	1226.16	1836.56	1818.66	1338.94	1278.08	1340.73	1163.51
1542.66	1225.95	1848.76	1795.07	1358.38	1274.27	1310.06	1193.73
1541.26	1180.99	1818.01	1812.64	1342.04	1288.36	1329.51	1188.15
1539.87	1191.52	1803.38	1746.13	1331.06	1272.02	1316.75	1171.84
1538.47	1230.66	1826.31	1795.9	1361.23	1248.54	1311.15	1162.68
1537.07	1151.74	1836.71	1743.71	1346.68	1273.36	1334.16	1151.74
1535.67	1176.57	1797.04	1784.53	1364.32	1264.19	1324.99	1187.3
1534.28	1222.84	1850.36	1800.3	1356.93	1226.42	1290.78	1217.48
1532.88	1197.6	1830.36	1817.85	1360.26	1265.53	1288.76	1227.99
1531.48	1209.9	1783.57	1753.19	1385.04	1259.94	1326.06	1217.05
1530.08	1207.89	1929.77	1763.6	1361.56	1290.09	1304.38	1206.11
1528.68	1170.16	1832.96	1745.42	1361.32	1266.63	1334.52	1204.11
1527.28	1198.53	1866.57	1812.98	1373.58	1293.2	1332.5	1173.53
1525.88	1196.53	1853.73	1816.23	1360.83	1241.18	1342.97	1237.61
1524.48	1219.53	1824.83	1760.55	1365.95	1244.53	1282.02	1198.1
1523.08	1228.24	1828.08	1776.3	1381.77	1247.88	1315.71	1183.61
1521.68	1233.37	1797.41	1752.78	1377.95	1272.64	1313.69	1204.82
1520.28	1177.83	1822.07	1811.36	1359.86	1243.86	1322.38	1201.03
1518.88	1215.09	1861	1798.55	1366.75	1288.25	1336.42	1204.38
1517.47	1161.35	1816.07	1758.98	1407.54	1234.5	1330.83	1172.06
1516.07	1203.95	1810.39	1780.07	1344.86	1298.49	1366.26	1207.52
1514.67	1242.97	1836.82	1786.88	1362.45	1248.32	1319.65	1214.44
1513.27	1230.27	1845.4	1799.04	1394.3	1239.18	1374.69	1192.83
1511.87	1187.26	1802.29	1800.51	1376.23	1260.35	1353.05	1190.83
1510.46	1199.53	1796.62	1837.61	1379.55	1272.61	1338.55	1181.7
1509.06	1224.26	1826.59	1771.35	1381.08	1229.61	1327.62	1167.24
1507.66	1197.32	1822.7	1822.7	1366.58	1265.02	1300.66	1170.59
1506.25	1220.26	1799.22	1768.93	1360.99	1271.92	1341.4	1168.6
1504.85	1159.49	1864.8	1759.71	1362.53	1291.29	1301.97	1205.79
1503.45	1239.41	1782.55	1796.79	1342.7	1235.85	1312.43	1193.11
1502.04	1208.92	1805.37	1801.81	1346.02	1260.56	1347.8	1200.02
1500.64	1226.51	1790.81	1796.15	1374.26	1258.55	1333.32	1196.25
1499.23	1215.61	1804.73	1779.81	1379.35	1261.89	1322.4	1196.03
1497.83	1202.94	1848.89	1742.12	1412.92	1252.76	1352.41	1156.67
1496.42	1222.29	1841.45	1752.49	1361.07	1263.21	1350.39	1168.92
1495.02	1227.41	1785.97	1817.99	1351.93	1197.17	1314.57	1227.41
1493.61	1195.18	1796.32	1805.22	1380.15	1253.87	1262.76	1225.41
1492.21	1186.07	1788.89	1783.55	1394.12	1271.43	1333.66	1193.19
1490.8	1203.64	1831.24	1841.91	1386.76	1255.2	1345.87	1173.42
1489.39	1228.31	1843.35	1756.25	1356.3	1281.64	1299.41	1238.98
1487.99	1215.65	1850.13	1796.82	1368.49	1272.52	1341.84	1206.76
1486.58	1211.88	1791.16	1817.82	1428.67	1268.74	1307.83	1208.32
1485.17	1241.86	1817.49	1881.45	1346.68	1279.17	1341.35	1206.33
1483.77	1215	1785.19	1756.77	1389.08	1273.62	1332.23	1200.79
1482.36	1218.33	1880.78	1861.24	1379.95	1276.94	1330.22	1209.45
1480.95	1216.34	1866.23	1828.95	1408.11	1285.59	1358.39	1143.53
1479.54	1178.84	1841.05	1782.46	1349.27	1287.13	1345.72	1200.14
1478.13	1217.68	1803.44	1792.79	1377.43	1256.73	1341.93	1198.15
1476.73	1249.4	1794.24	1835.06	1373.63	1251.18	1334.59	1203.26
1475.32	1181.75	1801.02	1848.93	1366.29	1275.8	1311.28	1179.98
1473.91	1209.93	1809.57	1813.12	1355.4	1279.12	1366.05	1206.38
1472.5	1206.16	1802.15	1834.08	1420.79	1284.21	1351.61	1204.39
1471.09	1207.72	1840.84	1764.58	1321.22	1285.75	1322.99	1211.27
1469.68	1198.64	1854.7	1803.28	1361.77	1269.56	1358.22	1189.77
1468.27	1203.74	1822.45	1808.27	1370.39	1271.11	1333.16	1161.19
1466.86	1246.07	1869.99	1770.73	1400.27	1304.56	1359.51	1180.48
1465.45	1199.77	1761.55	1796.99	1403.57	1249.39	1373.44	1197.99
1464.04	1211.95	1826.79	1775.41	1408.63	1250.94	1360.79	1206.64
1462.63	1241.85	1822.92	1835.32	1385.35	1289.69	1349.92	1174.53
1461.21	1218.61	1794.25	1820.82	1409.9	1241.63	1363.85	1220.38
1459.8	1197.14	1770.91	1832.89	1388.39	1308.7	1314.02	1198.91
1458.39	1237.64	1779.45	1772.36	1409.39	1296.07	1343.88	1175.67
1456.98	1256.9	1814.53	1743.72	1394.98	1228.57	1313.55	1177.23
1455.57	1265.52	1778.81	1870.85	1391.19	1261.98	1357.56	1185.87
1454.15	1160.89	1778.49	1753.72	1352.01	1270.6	1332.54	1233.44
1452.74	1227.91	1797.63	1799.4	1399.54	1282.76	1346.46	1201.37
1451.33	1247.15	1797.31	1800.85	1374.52	1250.69	1362.14	1204.69
1449.91	1241.62	1798.76	1798.76	1367.2	1284.07	1360.12	1177.95
1448.5	1198.96	1821.42	1819.66	1442.99	1282.07	1310.36	1223.71
1447.09	1244.71	1868.84	1833.47	1356.1	1248.25	1375.55	1225.26
1445.67	1207.37	1845.52	1852.59	1373.53	1256.86	1392.98	1230.35
1444.26	1237.2	1797.47	1802.77	1410.4	1258.41	1330.87	1221.29
1442.84	1199.86	1768.87	1834.26	1433.12	1238.74	1323.56	1199.86
1441.43	1208.48	1878.1	1802.12	1436.4	1243.82	1325.09	1227.92
1440.01	1217.1	1842.43	1826.53	1402.58	1275.39	1316.02	1210.03
1438.6	1197.45	1764.39	1863.29	1375.84	1236.31	1349.34	1215.11
1437.18	1193.71	1861.19	1785.26	1386.18	1260.81	1349.1	1186.64
1435.76	1207.62	1816.72	1822.02	1338.27	1281.77	1366.51	1225.27
1434.35	1216.23	1809.34	1814.63	1382.16	1281.54	1318.61	1214.46
1432.93	1189.54	1791.36	1796.66	1373.08	1258.37	1300.72	1189.54
1431.51	1189.32	1806.92	1791.04	1401.07	1251.08	1341.07	1187.56
1430.1	1219.1	1794.25	1820.71	1423.75	1270.26	1333.78	1180.29
1428.68	1240.05	1776.29	1836.26	1356.47	1238.29	1354.71	1187.13
1427.26	1202.79	1774.2	1804.19	1386.21	1280.39	1350.94	1181.63
1425.85	1236.08	1779.18	1837.37	1375.38	1225.5	1310.14	1211.39
1424.43	1239.38	1775.33	1784.15	1380.42	1290.51	1369.84	1181.2
1423.01	1209.19	1790.88	1801.45	1392.51	1258.55	1320.24	1216.24
1421.59	1191.35	1811.7	1783.51	1351.73	1224.84	1339.39	1182.54
1420.17	1222.86	1776.14	1788.47	1365.58	1261.62	1307.43	1177.04
1418.75	1229.68	1878	1826.91	1428.76	1250.82	1333.63	1201.5
1417.33	1238.27	1805.44	1780.78	1377.42	1262.93	1328.1	1155.48
1415.91	1195.78	1805.12	1815.69	1394.79	1215.15	1289.12	1139.43
1414.49	1239.59	1822.4	1811.84	1410.38	1206.13	1311.78	1202.61
1413.07	1230.56	1746.38	1859.05	1364.36	1235.84	1346.75	1214.72
1411.65	1203.94	1821.75	1814.71	1379.95	1279.63	1320.11	1168.74
1410.23	1205.48	1802.06	1823.18	1393.78	1228.36	1318.11	1189.64
1408.81	1199.99	1784.15	1764.79	1344.27	1242.22	1287.96	1217.58
1407.39	1238.47	1843.64	1811.97	1372.17	1275.42	1310.6	1206.81
1405.97	1227.7	1834.51	1852.1	1454.59	1248.81	1356.1	1159.1
1404.55	1211.65	1790.22	1800.77	1412.13	1246.82	1355.85	1213.41
1403.13	1221.98	1745.94	1791.66	1369.68	1285.28	1316.93	1193.85
1401.7	1258.68	1815.95	1801.88	1371.19	1269.23	1369.43	1207.7
1400.28	1228.58	1796.29	1773.44	1383.25	1253.18	1316.46	1186.39
1398.86	1242.41	1857.47	1801.24	1379.48	1251.2	1312.7	1177.39
1397.44	1217.59	1829.02	1814.97	1375.72	1263.27	1326.53	1214.08
1396.01	1169.94	1825.18	1832.21	1410.61	1250.75	1319.26	1154.13
1394.59	1206.62	1816.07	1837.15	1384.01	1285.65	1324.29	1113.53
1393.17	1176.55	1749.02	1784.14	1390.78	1252.06	1343.37	1169.52
1391.74	1223.74	1792.6	1792.6	1360.69	1239.54	1351.91	1171.07
1390.32	1223.52	1830.89	1806.32	1360.44	1258.63	1316.56	1223.52
1388.89	1191.71	1823.54	1797.22	1375.99	1268.93	1332.12	1167.14
1387.47	1186.23	1823.22	1819.71	1381.01	1230.1	1331.88	1159.91
1386.04	1231.63	1794.82	1850.96	1393.04	1219.35	1363.22	1219.35
1384.62	1199.84	1782.21	1808.53	1382.27	1266.49	1343.68	1201.59
1383.19	1210.14	1834.51	1839.77	1350.45	1261.01	1317.13	1201.38
1381.77	1246.75	1809.63	1851.71	1392.29	1267.79	1369.5	1227.46
1380.34	1264.06	1823.33	1840.86	1365.74	1243.02	1334.19	1193.93
1378.91	1204.23	1826.51	1851.05	1379.52	1269.09	1367.25	1158.66
1377.49	1209.28	1838.45	1866.49	1388.04	1256.59	1293.4	1137.42
1376.06	1207.31	1860.9	1839.87	1394.8	1296.67	1329.96	1212.56
1374.63	1208.84	1830.78	1846.55	1385.79	1264.9	1354.25	1156.28
1373.21	1245.41	1783.16	1819.94	1378.53	1241.9	1322.48	1156.07
1371.78	1176.88	1838.88	1819.61	1366.02	1257.44	1285.46	1208.41
1370.35	1195.93	1821.04	1850.8	1367.53	1248.46	1308	1173.17
1368.92	1167.71	1771.69	1827.71	1376.04	1188.71	1334.02	1195.72
1367.5	1214.76	1776.62	1841.39	1379.29	1227.01	1365.29	1195.5
1366.07	1202.29	1757.05	1832.31	1419.29	1258.29	1344.04	1148.04
1364.64	1203.82	1826.73	1849.47	1389.29	1249.31	1312.3	1146.08
1363.21	1203.6	1770.42	1873.63	1357.55	1205.35	1355.8	1184.36
1361.78	1215.63	1724.62	1822.57	1415.03	1250.61	1343.32	1180.65
1360.35	1229.4	1797.76	1834.49	1404.28	1211.91	1320.34	1182.19
1358.92	1234.43	1807.93	1877.87	1390.04	1299.12	1304.37	1150.5
1357.49	1256.93	1791.87	1839.07	1381.05	1305.88	1300.64	1171.27
1356.06	1172.81	1791.55	1833.5	1358.08	1298.65	1342.35	1178.05
1354.63	1221.53	1843.65	1840.16	1373.56	1242.5	1312.4	1191.82
1353.2	1181.12	1782.17	1804.88	1417	1271.98	1368.08	1207.33
1351.77	1191.39	1806.3	1886.66	1350.36	1271.75	1338.13	1133.74
1350.34	1168.47	1805.98	1854.88	1393.78	1227.86	1360.6	1147.51
1348.9	1178.74	1833.59	1833.59	1379.56	1241.6	1341.14	1203.19
1347.47	1194.24	1848.98	1859.45	1384.55	1250.11	1319.95	1209.95
1346.04	1167.84	1724.7	1831.19	1379.06	1270.83	1317.97	1167.84
1344.61	1172.87	1802.93	1832.6	1368.34	1260.13	1366.6	1230.46
1343.18	1195.34	1793.88	1753.75	1376.82	1279.1	1333.2	1218.03
1341.74	1177.68	1746.45	1779.6	1390.53	1254.45	1315.51	1167.21
1340.31	1151.3	1779.28	1854.29	1327.48	1245.5	1308.3	1172.23
1338.88	1201.67	1792.91	1848.73	1348.17	1267.95	1348.17	1185.97
1337.44	1204.94	1768.18	1811.77	1361.88	1262.49	1335.73	1184.02
1336.01	1196.01	1780.07	1759.14	1379.07	1251.8	1344.2	1168.11
1334.57	1164.42	1788.46	1816.35	1370.11	1288.18	1335.24	1174.88
1333.14	1190.35	1758.51	1768.97	1437.83	1223.46	1408.2	1181.64
1331.71	1214.53	1770.39	1838.35	1366.13	1263.32	1331.28	1143.09
1330.27	1188.18	1768.33	1886.8	1346.72	1257.87	1308.39	1179.47
1328.84	1187.96	1804.59	1801.11	1407.44	1219.32	1280.28	1193.19
1327.4	1198.2	1811.23	1880.9	1401.96	1236.51	1278.31	1189.49
1325.96	1206.69	1783.05	1802.2	1419.12	1267.63	1312.91	1168.38
1324.53	1232.59	1754.87	1841.92	1394.5	1244.77	1312.67	1164.69
1323.09	1178.41	1792.85	1813.74	1359.43	1282.84	1314.18	1164.48
1321.66	1223.44	1752.5	1909.13	1350.48	1246.07	1333.08	1157.31
1320.22	1197.12	1773.06	1867.02	1378.08	1271.94	1322.4	1160.58
1318.78	1176.03	1753.61	1784.92	1344.78	1240.4	1316.94	1214.3
1317.34	1207.13	1788.08	1835.04	1360.19	1311.49	1320.19	1174.08
1315.91	1205.17	1787.76	1850.36	1389.51	1264.3	1312.99	1151.26
1314.47	1203.21	1782.22	1825.69	1345.79	1251.9	1309.28	1206.69
1313.03	1178.66	1771.47	1849.7	1347.29	1234.29	1300.35	1182.14
1311.59	1168.02	1743.34	1825.03	1387.02	1221.9	1331.4	1181.92
1310.15	1204.3	1781.25	1850.77	1409.36	1261.65	1360.7	1197.35
1308.71	1211.03	1706.22	1850.43	1410.85	1259.68	1315.28	1198.87
1307.28	1176.07	1749.34	1843.15	1353.27	1229.93	1315.05	1184.76
1305.84	1207.12	1733.4	1809.82	1335.65	1276.6	1316.55	1170.65
1304.4	1215.59	1715.72	1821.65	1370.14	1248.58	1314.57	1153.07
1302.96	1220.58	1802.22	1868.2	1437.61	1231	1314.34	1158.07
1301.52	1183.9	1768.91	1833.14	1348.82	1274.17	1367.91	1197.79
1300.08	1185.43	1792.89	1851.9	1352.05	1239.23	1336.43	1197.58
1298.64	1176.54	1749.19	1822.07	1391.71	1228.6	1332.71	1166.12
1297.19	1188.47	1754.08	1844.3	1377.58	1221.43	1335.94	1181.53
1295.75	1193.46	1731.21	1840.49	1365.19	1264.58	1370.4	1162.23
1294.31	1222.73	1743.04	1819.35	1389.23	1203.65	1333.73	1163.76
1292.87	1215.57	1737.52	1825.96	1387.24	1219.04	1368.17	1135.8
1291.43	1218.82	1709.47	1874.17	1397.39	1244.83	1310.71	1196.28
1289.99	1187.4	1754.23	1856.5	1369.41	1239.4	1308.74	1147.53
1288.54	1168.12	1769.51	1824.97	1407.29	1246.11	1325.83	1142.12
1287.1	1174.84	1725.87	1819.44	1363.72	1214.69	1353.32	1181.77
1285.66	1193.69	1741.15	1836.44	1351.34	1181.56	1327.09	1160.77
1284.21	1214.26	1780.68	1837.84	1384.01	1233.31	1316.45	1207.33
1282.77	1174.2	1735.33	1856.56	1375.1	1217.5	1328.34	1181.13
1281.33	1193.04	1722.89	1826.79	1386.97	1238.06	1305.59	1154.95
1279.88	1225.72	1764.13	1857.62	1369.41	1241.3	1301.89	1187.63
1278.44	1178.76	1708.43	1839.98	1379.55	1234.15	1293	1202.99
1276.99	1182.01	1673.5	1865.6	1398.34	1232.2	1334.3	1240.85
1275.55	1192.18	1764.91	1792.59	1361.75	1252.74	1340.98	1166.22
1274.1	1188.5	1762.86	1806.11	1347.66	1268.08	1368.42	1167.74
1272.66	1196.94	1731.41	1821.35	1350.88	1228.07	1345.69	1195.21
1271.21	1200.18	1713.8	1840.05	1390.41	1239.96	1274.54	1150.03
1269.77	1208.61	1729.05	1801.67	1403.99	1265.67	1331.37	1168.84
1268.32	1173.82	1708	1777.15	1396.82	1223.95	1308.66	1191.1
1266.88	1237.56	1731.89	1851.15	1362	1234.1	1270.4	1196.07
1265.43	1195.86	1767.86	1881.92	1337.56	1240.79	1330.65	1185.49
1263.98	1169.72	1738.17	1838.39	1366.69	1233.65	1316.59	1162.81
1262.53	1233.43	1713.67	1779.32	1430.37	1276.62	1323.26	1178.15
1261.09	1171.03	1751.36	1830.81	1367.93	1236.66	1276.39	1158.94
1259.64	1179.45	1700.97	1761.41	1345.23	1246.8	1324.51	1165.64
1258.19	1210.32	1709.29	1845.69	1400.24	1236.22	1374.34	1144.71
1256.74	1215.28	1731.43	1817.74	1370.64	1237.72	1317.13	1161.76
1255.29	1175.36	1765.63	1788.07	1360.04	1211.61	1322.07	1194.35
1253.85	1207.94	1675.58	1805	1354.61	1201.03	1316.65	1199.31
1252.4	1193.92	1730.49	1856.44	1369.9	1230.15	1307.79	1162.86
1250.95	1228.2	1730.17	1790.55	1390.35	1229.92	1305.82	1138.5
1249.5	1167.61	1805.75	1810.92	1371.13	1241.78	1310.76	1146.92
1248.05	1203.61	1695.06	1841.63	1365.71	1220.86	1322.6	1136.36
1246.6	1143.06	1746.48	1858.54	1334.43	1230.98	1298.22	1170.64
1245.15	1216.97	1666.87	1813.39	1373.83	1220.42	1299.71	1127.33
1243.7	1168.49	1733.78	1807.89	1411.5	1239.15	1304.65	1151.26
1242.25	1168.28	1664.54	1798.95	1371.61	1194.13	1282.01	1168.28
1240.8	1193.91	1678.03	1865.81	1378.26	1255.94	1378.26	1228.37
1239.34	1171.31	1744.9	1844.81	1403.84	1222.98	1341.83	1157.53
1237.89	1157.32	1730.81	1810.03	1382.92	1229.65	1262.37	1150.43
1236.44	1191.54	1730.5	1833.81	1374.06	1222.54	1358.57	1189.82
1234.99	1181	1711.24	1788.72	1413.41	1270.52	1298.07	1172.39
1233.54	1182.51	1688.56	1812.49	1371.85	1223.82	1351.19	1153.25
1232.08	1184.02	1733	1813.88	1381.92	1211.55	1299.32	1187.46
1230.63	1187.24	1715.48	1834.2	1378.23	1225.1	1352.42	1157.99
1229.18	1162.94	1732.37	1866.56	1372.82	1261	1329.82	1183.59
1227.72	1178.21	1732.06	1840.42	1420.74	1252.17	1346.77	1216.05
1226.27	1164.24	1712.83	1893.4	1406.72	1234.75	1313.86	1172.84
1224.82	1200.14	1685.01	1815.68	1411.62	1239.69	1282.67	1162.31
1223.36	1186.17	1731.12	1798.16	1385.58	1253.21	1323.7	1181.01
1221.91	1180.8	1753.15	1887.22	1380.18	1201.42	1320.02	1155.02
1220.45	1190.9	1706.44	1862.82	1373.05	1268.23	1330.09	1147.93
1219	1173.5	1728.46	1843.58	1395.14	1200.99	1329.85	1178.65
1217.54	1176.72	1652.56	1853.55	1413.78	1257.46	1331.33	1171.57
1216.09	1193.68	1751.88	1861.8	1398.07	1231.47	1331.09	1149.03
1214.63	1152.26	1755	1844.3	1414.99	1232.97	1310.24	1174.58
1213.17	1191.54	1785.59	1888.6	1404.43	1248.19	1339.19	1198.4
1211.72	1232.52	1696	1865.94	1375	1199.9	1338.95	1170.72
1210.26	1155.06	1731.74	1752.33	1409.07	1246.03	1294.08	1182.52
1208.8	1172.01	1818.94	1842.96	1333.32	1235.51	1299	1153.14
1207.35	1199.25	1751.7	1880.37	1370.82	1257.59	1362.24	1185.53
1205.89	1183.6	1780.54	1862.88	1363.71	1214.47	1325.97	1171.59
1204.43	1171.38	1742.49	1805.95	1353.17	1236.55	1291.43	1154.23
1202.97	1167.74	1750.75	1850.2	1383.79	1267.19	1364.93	1178.02
1201.52	1193.24	1741.86	1863.58	1385.26	1215.53	1304.68	1184.67
1200.06	1184.45	1763.83	1882.1	1446.71	1244.45	1335.3	1179.31
1198.6	1199.66	1729.23	1833.77	1371.05	1230.51	1305.92	1120.83
1197.14	1170.32	1751.19	1806.03	1398.21	1218.3	1288.55	1204.59
1195.68	1192.38	1773.15	1819.4	1421.94	1236.92	1300.31	1151.26
1194.22	1151.05	1742	1885.88	1426.83	1204.15	1291.51	1115.08
1192.76	1209.07	1757.09	1892.39	1397.45	1221.06	1296.41	1167.97
1191.3	1203.72	1761.91	1842.39	1398.91	1224.26	1335.56	1148.92
1189.84	1224.04	1795.83	1838.63	1395.24	1259.99	1354.15	1143.58
1188.38	1172.47	1739.02	1826.32	1374.44	1263.19	1304.27	1198.15
1186.92	1155.15	1825.98	1870.48	1401.58	1218.46	1329.7	1129.48
1185.46	1213.11	1738.39	1897.52	1425.28	1190.87	1320.9	1166.91
1184	1200.92	1763.74	1866.38	1413.04	1267.63	1310.4	1156.44
1182.54	1180.17	1741.18	1876.3	1387.13	1248.59	1330.69	1140.83
1181.07	1210.74	1771.65	1875.97	1434.76	1250.07	1344.13	1205.61
1179.61	1222.49	1771.33	1838.01	1446.47	1265.23	1289.17	1169.49
1178.15	1176.11	1827.42	1849.64	1381.25	1203.46	1340.22	1141.92
1176.69	1181.03	1799.74	1804.87	1362.2	1206.67	1350.23	1151.97
1175.22	1209.86	1720.81	1814.8	1401.26	1286.76	1356.83	1182.52
1173.76	1178.89	1828.14	1834.97	1397.58	1233.56	1320.7	1192.56
1172.3	1204.3	1788.52	1868.8	1414.41	1245.3	1356.33	1166.72
1170.83	1209.21	1767.7	1945.32	1344.13	1258.74	1327.05	1210.91
1169.37	1166.3	1849.34	1863	1395.12	1253.39	1350.72	1178.25
1167.9	1172.92	1799.49	1884.86	1394.86	1254.87	1331.69	1159.26
1166.44	1191.48	1829.89	1934.02	1413.39	1222.21	1285.36	1130.03
1164.97	1225.4	1786.9	1887.59	1414.84	1228.81	1344.87	1169.08
1163.51	1245.65	1868.48	1887.25	1382.16	1254.18	1329.26	1177.4
1162.04	1223.25	1736.77	1871.55	1375.09	1223.25	1340.97	1151.59
1160.58	1197.44	1792.75	1900.21	1381.66	1252.02	1332.19	1165.03
1159.11	1156.29	1783.9	1920.33	1439.4	1250.09	1347.3	1163.11
1157.65	1227.7	1833.02	1819.38	1420.38	1215.76	1369.22	1185.07
1156.18	1213.84	1795.18	1880.42	1472.97	1239.41	1353.63	1186.56
1154.71	1181.23	1810.2	1861.33	1404.52	1276.68	1396	1188.05
1153.25	1204.88	1801.35	1837.14	1395.75	1227.03	1353.14	1174.2
1151.78	1211.47	1778.87	1896.44	1380.16	1237.03	1310.3	1219.99
1150.31	1194.22	1848.4	1875.65	1424.2	1272.58	1359.46	1211.25
1148.84	1202.52	1831.03	1890.64	1384.77	1236.58	1330.26	1166.75
1147.38	1200.6	1830.7	1835.8	1421.98	1226.14	1374.3	1171.64
1145.91	1203.78	1855.9	1854.2	1440.45	1249.75	1360.43	1196.97
1144.44	1223.99	1804.5	1899.83	1431.68	1232.5	1375.5	1188.24
1142.97	1225.47	1821.19	1892.67	1433.12	1228.88	1312.28	1160.8
1141.5	1257.58	1763	1808.95	1451.58	1228.65	1293.32	1179.3
1140.03	1208.01	1849.45	1912.41	1407.08	1294.79	1339.02	1156.97
1138.56	1216.3	1837.21	1874.63	1439.15	1274.14	1354.09	1153.36
1137.09	1226.28	1807.96	1858.99	1455.89	1306.22	1355.55	1195.67
1135.62	1226.06	1822.94	1924.97	1416.52	1273.68	1372.31	1151.24
1134.15	1222.44	1783.5	1873.61	1406.06	1254.74	1334.65	1183.33
1132.68	1213.72	1776.38	1907.27	1485.7	1286.81	1351.41	1166.12
1131.21	1210.1	1813.45	1872.93	1390.25	1244.09	1390.25	1211.8
1129.74	1172.5	1850.5	1928.67	1410.39	1255.76	1332.23	1136.81
1128.27	1247.04	1799.2	1906.23	1386.35	1262.33	1360.87	1189.27
1126.8	1207.74	1814.16	1877.01	1447.25	1272.29	1324.95	1226.43
1125.32	1212.62	1784.96	1891.95	1443.59	1249.98	1390.94	1233
1123.85	1225.98	1801.62	1821.99	1431.44	1239.57	1339.75	1202.21
1122.38	1222.36	1752.05	1843.73	1432.88	1252.92	1334.41	1173.13
1120.91	1235.72	1773.8	1929.96	1434.32	1271.37	1373.21	1184.8
1119.43	1237.19	1821	1922.83	1444.24	1259.26	1369.57	1206.65
1117.96	1216.61	1856.3	1936.05	1420.22	1250.54	1359.14	1192.85
1116.49	1235.05	1788.1	1911.95	1443.72	1296.12	1369.07	1134.95
1115.01	1185.63	1733.5	1879.37	1424.8	1255.18	1367.13	1219.56
1113.54	1202.38	1787.46	1946.87	1402.49	1241.38	1378.75	1182.03
1112.06	1215.72	1749.83	1958.38	1475.15	1259.81	1353.06	1236.07
1110.59	1220.59	1793.59	1902.08	1407.07	1259.58	1335.87	1190.07
1109.11	1244.1	1811.91	1903.43	1416.98	1218.67	1374.61	1215.28
1107.64	1255.73	1803.1	1913.26	1415.03	1233.7	1374.36	1150.66
1106.16	1170.79	1733.31	1870.55	1441.88	1252.12	1404.61	1225.01
1104.69	1233.25	1809.22	1917.64	1404.35	1238.34	1395.88	1202.76
1103.21	1200.85	1813.98	1866.48	1426.11	1283.84	1371.92	1172.06
1101.73	1273.45	1749.3	1933.88	1425.86	1263.29	1369.97	1190.47
1100.26	1203.8	1757.45	1916.6	1398.51	1220.73	1337.55	1220.73
1098.78	1240.82	1757.13	1897.63	1472.74	1239.13	1369.48	1249.29
1097.3	1225.36	1765.27	1900.67	1460.62	1343.84	1306.6	1223.67
1095.83	1245.45	1763.26	1876.63	1426.51	1265.75	1370.67	1164.22
1094.35	1240.15	1727.41	1911.82	1439.79	1265.52	1338.27	1165.7
1092.87	1253.45	1723.71	1928.39	1442.91	1300.82	1353.26	1202.71
1091.39	1202.49	1740.31	1872.23	1424.04	1280.29	1334.41	1194.03
1089.91	1231.02	1728.16	1942.91	1439	1254.69	1381.51	1202.27
1088.44	1222.34	1759.96	1896.91	1459.03	1240.94	1337.3	1229.1
1086.96	1227.19	1742.74	1916.85	1455.38	1272.83	1396.22	1193.38
1085.48	1255.69	1739.04	1886.08	1401.04	1294.57	1379.07	1226.96
1084	1241.95	1786.04	1902.63	1464.99	1292.64	1356.85	1213.22
1082.52	1218.07	1692.8	1868.5	1488.38	1285.65	1366.74	1182.59
1081.04	1226.29	1697.56	1928.96	1461.08	1233.05	1369.87	1233.05
1079.56	1237.89	1752.98	1970.83	1455.75	1276.74	1405.08	1222.69
1078.08	1237.67	1803.31	1931.64	1423.4	1247.8	1381.19	1197.14
1076.6	1235.75	1762.47	1927.91	1426.52	1298.22	1323.54	1176.67
1075.12	1203.46	1767.21	1964.7	1454.95	1289.54	1365.5	1235.53
1073.63	1263.99	1729.77	1966.03	1459.75	1304.5	1392.25	1204.93
1072.15	1240.14	1694.02	1985.92	1420.68	1284.01	1415.62	1155.78
1070.67	1226.42	1789.87	1901.21	1482.84	1241.6	1395.12	1219.67
1069.19	1258.24	1774.36	1904.23	1430.28	1253.18	1430.28	1184.03
1067.71	1252.96	1775.72	1924.12	1413.16	1283.31	1397.98	1224.29
1066.22	1239.24	1739.99	1996.27	1419.65	1291.51	1436.51	1219.01
1064.74	1233.96	1665.51	1967.25	1446.36	1291.27	1400.85	1240.7
1063.26	1228.68	1766.33	1916.33	1447.78	1280.93	1356.77	1201.71
1061.77	1253.73	1737.36	1867.11	1452.57	1277.32	1391.91	1208.23
1060.29	1192.85	1774.11	1989.77	1445.57	1319.21	1395.03	1226.55
1058.8	1285.28	1758.63	1930.45	1416.67	1347.61	1381.3	1214.53
1057.32	1268.2	1765.04	1916.62	1471.99	1278.31	1337.26	1224.41
1055.84	1249.45	1803.45	1987	1470.04	1340.38	1367.32	1278.08
1054.35	1190.3	1777.87	2001.79	1454.62	1316.57	1392.33	1247.54
1052.87	1289.39	1770.81	1957.66	1452.67	1312.96	1417.32	1235.53
1051.38	1263.91	1765.44	1964.03	1460.82	1302.62	1430.53	1208.38
1049.89	1283.88	1830.74	1960.31	1474.02	1317.53	1406.71	1267.05
1048.41	1305.51	1786.67	2010.42	1487.21	1290.37	1416.55	1263.45
1046.92	1256.5	1801.48	2020.15	1497.03	1318.73	1416.29	1256.5
1045.44	1293.27	1828.06	1949.15	1456.4	1310.08	1427.81	1242.81
1043.95	1319.93	1802.51	2024.46	1477.99	1318.25	1420.82	1308.16
1042.46	1321.37	1834.12	1956.84	1494.53	1302.88	1444.1	1267.58
1040.97	1337.94	1847.23	2043.89	1517.79	1331.22	1453.92	1248.86
1039.49	1362.91	1873.79	2072.09	1532.64	1352.82	1515.83	1280.56
1038	1342.5	1880.17	2019.62	1545.8	1379.46	1466.83	1303.85
1036.51	1461.52	1935.26	2120.05	1579.12	1365.77	1498.48	1340.57
1035.02	1409.19	1911.39	2128.06	1609.06	1409.19	1538.52	1336.97
1033.53	1487.86	1956.39	2137.75	1650.75	1380.39	1514.73	1333.37
1032.04	1470.8	1992.97	2112.18	1621.91	1472.48	1603.44	1358.31
1030.56	1542.72	1912.03	2177.26	1724.01	1477.25	1630.01	1430.24
1029.07	1555.86	1980.49	2197	1723.7	1451.8	1624.68	1451.8
1027.58	1547.19	2022.08	2260.37	1651.23	1491.81	1691.5	1444.83
1026.09	1580.46	2085.47	2246.54	1749.92	1521.74	1714.68	1518.38
1024.6	1617.08	2066.64	2229.35	1781.47	1556.69	1741.21	1508.04
1023.11	1685.55	2175.28	2309.45	1766.05	1591.63	1749.28	1548.02
1021.61	1655.06	2121.22	2268.78	1794.23	1541.03	1750.64	1576.24
1020.12	1740.26	2174.48	2322.02	1840.85	1594.4	1809	1634.64
1018.63	1756.7	2164.03	2383.62	1875.72	1617.58	1808.67	1647.75
1017.14	1808.34	2182.07	2374.8	1831.8	1625.66	1810.01	1615.6
1015.65	1809.68	2216.86	2404.53	1957.14	1658.88	1853.25	1677.31
1014.16	1844.54	2303.57	2340.43	1975.21	1645.17	1886.42	1692.08
1012.66	1862.62	2288.08	2423.76	1931.3	1671.67	1946.38	1686.75
1011.17	1910.85	2324.51	2475.23	1991.24	1713.23	1951.04	1763.48
1009.68	1883.71	2389.38	2396.08	1977.48	1781.57	2010.97	1753.11
1008.18	1965.4	2415.73	2472.65	2040.73	1736.05	1993.86	1791.29
1006.69	2023.62	2457.14	2532.46	2057.1	1757.49	2078.86	1832.81
1005.2	2076.81	2465.06	2605.63	2063.42	1815.74	2137.05	1855.91
1003.7	2103.2	2501.42	2546.6	2124.95	1845.53	2113.24	1880.67
1002.21	2176.42	2511	2684.98	2206.53	1927.16	2188.13	1907.09
1000.71	2202.79	2522.25	2743.03	2286.42	1921.79	2291.43	1985.35
999.218	2312.76	2652.23	2806.08	2331.15	1995.02	2322.79	2078.64
997.723	2419.34	2728.65	2783.83	2436.06	2118.39	2409.31	2208.67
996.227	2535.91	2743.2	2840.16	2464.03	2183.19	2484.09	2321.94
994.732	2675.85	2827.94	3021.82	2573.89	2274.72	2679.19	2368.32
993.236	2847.48	2984.5	3178.35	2698.75	2329.45	2765.6	2566.74
991.739	3034.08	3176.09	3267.99	2851.97	2497.77	3005.68	2641.46
990.243	3188.88	3349.24	3431.09	3078.63	2702.78	3238.99	2849.78
988.746	3575.77	3524	3544.04	3330.26	2824.21	3318.57	2962.83
987.249	3705.36	3570.11	3690.34	3416.48	2892.15	3533.37	3194.39
985.751	3886.67	3778.15	3831.57	3474.29	2960.08	3597.84	3197.15
984.254	3894.3	3725.71	3895.97	3508.71	2939.51	3632.23	3383.52
982.756	3865.22	3785.11	3987.05	3463.01	2997.38	3684.98	3294.45
981.257	3934.6	3842.82	3929.59	3507.43	2991.83	3660.94	3375.61
979.759	3940.55	3768.72	3877.16	3501.79	3091.38	3767.05	3334.95
978.26	3973.19	3741.34	3781.37	3591.22	2964.05	3611.24	3319.33
976.761	3949.12	3782.35	3910.76	3475.49	3001.86	3538.86	3327.07
975.262	3875.03	3776.66	3846.69	3481.53	2994.65	3599.91	3309.79
973.762	3795.97	3735.96	3879.33	3412.54	2994.1	3554.24	3235.83
972.262	3753.61	3726.94	3781.94	3426.92	2918.55	3456.92	3205.24
970.762	3714.59	3662.93	3749.59	3404.63	2913.02	3509.62	3219.65
969.261	3765.57	3675.59	3745.57	3407.34	2900.82	3553.96	3200.73
967.761	3678.25	3664.93	3699.91	3345.08	2926.94	3466.69	3180.16
966.26	3660.93	3642.61	3697.57	3332.81	2839.8	3469.39	3149.6
964.759	3616.96	3708.55	3685.24	3288.9	2794.32	3433.78	3134.03
963.257	3558.03	3602.98	3732.85	3260	2832.1	3414.84	3093.5
961.755	3525.75	3587.34	3645.6	3272.72	2763.33	3412.55	3043
960.253	3525.1	3555.06	3653.26	3232.18	2772.82	3408.6	3049.1
958.751	3534.44	3506.16	3625.97	3353.06	2763.99	3351.4	3108.45
957.248	3538.79	3527.14	3633.62	3209.37	2755.17	3374.08	3087.91
955.745	3569.75	3453.31	3586.38	3268.67	2792.92	3313.58	3019.15
954.242	3545.81	3497.58	3594.04	3268.07	2724.22	3361.2	2970.37
952.739	3513.57	3585.07	3633.29	3212.6	2735.36	3289.09	2988.11
951.235	3459.73	3547.84	3647.59	3125.56	2779.75	3263.55	2914.42
949.731	3356.04	3510.62	3558.83	3193.14	2697.8	3252.98	3041.88
948.227	3406.94	3470.1	3584.77	3227.46	2708.94	3277.31	2915.01
946.722	3446.2	3447.86	3520.97	3150.43	2638.65	3309.95	2980.95
945.217	3417.33	3404.04	3558.54	3227.94	2734.53	3299.37	2958.8
943.712	3410.06	3454.91	3571.18	3126.03	2710.77	3232.33	3024.7
942.207	3406.11	3450.95	3525.68	3082.28	2617.28	3085.6	2863.06
940.701	3241.11	3418.77	3342.4	2937.26	2578.61	3058.47	2681.55
939.195	3011.42	3260.44	3255.46	2750.79	2412.13	2910.16	2681.06
937.689	2798.42	3050.71	3073.95	2660.66	2332.02	2741.99	2532.85
936.182	2622	2915.73	3020.28	2490.9	2142.41	2519.11	2300.06
934.676	2415.78	2800.71	2830.58	2429.06	2085.6	2384.26	2161.93
933.169	2284.29	2720.58	2760.39	2295.9	1937.58	2226.23	1969.1
931.661	2134.6	2613.93	2703.49	2224.16	1826.1	2129.62	1945.52
930.154	2043	2421.09	2571.99	2091.09	1784.31	2046.32	1742.85
928.646	1866.88	2382.51	2486.97	1948.12	1674.56	1914.96	1729.27
927.138	1725.64	2362.19	2353.9	1906.33	1652.7	1861.57	1619.55
925.629	1731.95	2280.54	2310.37	1856.26	1562.9	1781.67	1624.22
924.121	1668.67	2240.36	2265.21	1796.26	1609.01	1766.43	1506.27
922.612	1626.94	2201.84	2299.59	1853.92	1610.38	1736.29	1550.73
921.102	1704.5	2186.53	2302.48	1792.29	1515.66	1716.09	1499.1
919.593	1652.85	2219.25	2257.34	1785.34	1568.38	1750.56	1517.04
918.083	1589.62	2159.24	2240.37	1727.06	1518.42	1702.22	1503.52
916.573	1547.94	2205.2	2198.57	1759.85	1499.93	1700.25	1559.53
915.063	1575.8	2093.89	2274.31	1754.56	1541.04	1706.56	1498
913.552	1590.4	2186.18	2252.38	1742.66	1492.76	1694.66	1467.94
912.041	1595.08	2151.04	2250.31	1737.38	1482.56	1720.83	1485.87
910.53	1513.72	2102.67	2253.21	1742.02	1515.38	1649.38	1490.56
909.019	1533.29	2105.59	2239.57	1758.24	1455.55	1683.81	1486.98
907.507	1584.28	2093.63	2244.12	1666.96	1498.28	1648.77	1470.17
905.995	1552.57	2147.81	2233.79	1772.48	1544.31	1729.49	1488.09
904.482	1486.16	2150.72	2195.36	1780.42	1474.59	1674.62	1461.37
902.97	1542.09	2079.26	2196.61	1740.43	1512.34	1656.13	1490.85
901.457	1579.81	2123.49	2235.86	1731.84	1495.53	1721.93	1550.07
899.944	1503.52	2121.45	2220.59	1703.44	1490.3	1640.66	1460.56
898.431	1544.54	2112.8	2273.04	1718	1511.51	1618.88	1499.94
896.917	1531.05	2082.69	2166.92	1694.56	1504.62	1687.95	1483.15
895.403	1552.23	2067.44	2224.32	1631.5	1461.41	1651.31	1482.88
893.889	1530.49	2109.99	2228.87	1726.96	1487.56	1657.62	1477.65
892.374	1523.6	2051.83	2208.65	1672.17	1492.24	1668.87	1546.71
890.859	1510.12	2061.36	2195.04	1774.19	1465.56	1638.85	1498.57
889.344	1503.24	2023.03	2217.74	1745.81	1494.99	1645.15	1480.14
887.829	1555.76	2095.25	2182.69	1719.09	1545.86	1633.3	1488.12
886.313	1499.39	2035.48	2226.82	1733.62	1530.74	1642.9	1405.37
884.798	1480.98	2076.34	2206.63	1710.22	1469.43	1680.53	1443.05
883.281	1535.12	2071.01	2244.15	1670.33	1475.76	1657.14	1493.9
881.765	1488.68	2037.66	2247.03	1709.59	1513.41	1679.92	1417.79
880.248	1508.19	2007.62	2208.71	1705.98	1475.22	1696.09	1514.78
878.731	1545.81	1995.71	2185.23	1740.28	1506.26	1636.45	1461.77
877.214	1517.52	1985.46	2242.5	1738.31	1486.21	1654.28	1468.09
875.696	1523.83	1994.98	2253.62	1714.93	1449.7	1657.27	1467.82
874.179	1538.38	2042.38	2160.97	1691.55	1403.31	1642.14	1467.55
872.66	1539.74	1987.66	2214.92	1692.89	1487.04	1683.01	1468.93
871.142	1476.89	1988.95	2229.33	1793.02	1448.9	1628.37	1458.78
869.623	1493.08	2041.26	2176.25	1721.9	1501.31	1660.99	1461.8
868.104	1499.39	2017.84	2210.41	1719.94	1489.52	1593.21	1420.39
866.585	1462.91	2002.66	2208.36	1676.84	1471.14	1665.32	1471.14
865.066	1495.55	2033.56	2212.89	1706.15	1470.87	1625.53	1421.51
863.546	1498.57	2011.8	2176.29	1695.96	1501.86	1668	1457.44
862.026	1532.83	2044.32	2192.34	1749.93	1468.69	1598.62	1430.86
860.506	1475	2025.86	2241.27	1690.41	1511.17	1629.57	1399.36
858.985	1486.23	2025.49	2189.89	1727.91	1494.45	1670.37	1478.01
857.464	1515.55	2057.99	2191.14	1671.71	1459.66	1604.31	1372.54
855.943	1502.12	2080.62	2225.25	1710.84	1464.32	1643.46	1433.1
854.421	1495.28	2073.67	2239.63	1764.75	1493.63	1697.38	1473.91
852.9	1519.64	2109.43	2204.72	1664.22	1495	1618.22	1419.43
851.378	1544	2105.76	2205.95	1713.19	1465.16	1644.2	1438.88
849.855	1501.02	2044.61	2228.54	1749	1436.97	1681.67	1412.34
848.333	1485.97	2057.37	2215	1683	1479.4	1632.1	1405.51
846.81	1472.56	2139.07	2239.21	1781.19	1482.41	1666.28	1492.26
845.287	1496.91	2153.45	2207.62	1720.14	1511.69	1687.31	1444.39
843.763	1439.2	2146.49	2248.24	1731.31	1513.05	1636.13	1444.12
842.24	1532.46	2136.26	2249.47	1757.24	1473.39	1667	1461.91
840.716	1509.21	2168.67	2214.61	1722.47	1481.32	1643.73	1460
839.191	1526.98	2092.83	2292.93	1800.88	1467.93	1636.87	1444.97
837.667	1503.74	2138.36	2287.59	1797.27	1482.42	1648.05	1456.18
836.142	1555.93	2144.52	2262.57	1728.08	1554.29	1677.25	1482.15
834.617	1501.55	2204.78	2306.42	1780.22	1521.22	1717.93	1483.52
833.092	1537.33	2151.93	2332.22	1771.7	1470.13	1693.03	1488.16
831.566	1519.02	2339.98	2344.9	1830.36	1543.6	1679.61	1460.03
830.04	1536.76	2441.13	2305.15	1802.18	1526.93	1730.09	1510.55
828.514	1544.67	2452.15	2319.47	1810.03	1541.4	1733.05	1495.53
826.987	1598.43	2553.24	2364.9	1819.53	1546.03	1716.35	1531.29
825.461	1588.32	2626.45	2361.19	1829.02	1537.56	1732.41	1472.06
823.933	1534	2724.2	2329.65	1818.86	1497.98	1712.45	1479.97
822.406	1561.54	2784.26	2334.13	1811.98	1533.72	1695.76	1514.07
820.879	1492.52	2674.1	2314.06	1772.37	1541.62	1703.63	1463.06
819.351	1528.24	2655.61	2285.82	1762.23	1554.42	1731.14	1459.52
817.822	1532.87	2638.76	2341.02	1756.99	1496.88	1650.66	1488.7
816.294	1562.03	2715.15	2296.43	1830.28	1481.89	1661.81	1465.53
814.765	1496.33	2665.59	2305.82	1792.33	1522.5	1643.51	1411.29
813.236	1543.47	2609.51	2289.05	1785.46	1533.66	1638.3	1411.03
811.707	1535.01	2520.76	2251.03	1755.7	1467.99	1659.25	1463.09
810.177	1516.75	2508.85	2224.46	1747.21	1516.75	1652.41	1428.49
808.647	1518.11	2557.42	2194.64	1719.11	1470.72	1666.82	1447.84
807.117	1488.42	2467.09	2253.05	1748.2	1476.98	1671.41	1457.38
805.587	1511.02	2378.42	2206.9	1749.51	1463.64	1633.53	1450.58
804.056	1491.14	2479.25	2273.46	1737.76	1448.68	1625.07	1419.28
802.525	1481.07	2442.87	2269.77	1743.97	1459.84	1631.3	1407.59
800.994	1462.84	2416.29	2215.48	1717.53	1492.22	1679.98	1400.8
799.462	1475.63	2407.69	2255.88	1725.37	1439.72	1606.21	1423.39
797.931	1410.07	2462.73	2296.27	1716.9	1462.3	1605.92	1405.18
796.398	1453.87	2400.28	2289.32	1778.59	1471.82	1615.41	1398.39
794.866	1466.66	2481.41	2316.63	1717.9	1489.5	1595.54	1391.61
793.333	1459.86	2600.02	2254.22	1800.77	1456.6	1603.4	1406.03
791.8	1453.07	2583.24	2325.56	1744.99	1467.75	1614.52	1399.25
790.267	1447.91	2647.98	2299.05	1751.19	1436.5	1632.16	1415.3
788.734	1449.28	2715.96	2252.98	1737.83	1467.21	1594.37	1413.41
787.2	1445.75	2726.87	2280.27	1729.36	1478.35	1613.63	1406.63
785.666	1466.67	2830.67	2232.6	1735.56	1461.78	1600.3	1378.67
784.131	1425.67	2815.49	2269.66	1767.82	1432.18	1556.01	1383.3
782.597	1383.05	2929	2323	1778.9	1487.31	1580.16	1358.61
781.062	1408.85	2995.24	2234.62	1716.68	1434.91	1576.61	1373.02
779.527	1416.74	2879.07	2221.18	1695.2	1424.88	1613.78	1405.34
777.991	1398.57	2836.21	2237.05	1698.14	1457.18	1589.06	1383.91
776.455	1401.56	2796.62	2295.24	1759.69	1442.26	1603.42	1383.66
774.919	1398.05	2732.63	2291.57	1682.87	1471.29	1572.2	1354.11
773.383	1415.69	2790.71	2281.38	1737.89	1428.71	1589.81	1345.72
771.846	1456.11	2690.95	2245.17	1770.1	1431.7	1635.07	1392.66
770.309	1394.03	2843.36	2202.46	1716.1	1460.72	1598.98	1307.81
768.772	1369.37	2896.5	2265.49	1772.71	1450.69	1610.07	1354.74
767.235	1351.24	3027.68	2248.81	1704.09	1430.91	1547.99	1344.73
765.697	1411.14	3084.02	2332.93	1716.78	1443.65	1612.73	1357.49
764.159	1358.87	3049.32	2329.25	1774.98	1415.76	1601.06	1318.23
762.62	1387.87	3128.39	2310.95	1751.9	1449.62	1579.63	1365.12
761.082	1356.74	3243.18	2271.53	1788.95	1433.11	1615.09	1350.24
759.543	1387.36	3322.18	2310.1	1778.87	1429.6	1561.18	1372.74
758.004	1328.63	3484	2334.03	1708.7	1411.47	1598.25	1327
756.464	1338.13	3506.09	2370.96	1713.26	1399.84	1568.73	1346.25
754.925	1417.44	3583.38	2297.45	1745.42	1446.67	1548.96	1334.63
753.385	1363.61	3602.2	2305.15	1730.48	1436.66	1574.64	1316.53
751.844	1369.85	3565.83	2277.13	1726.92	1420.16	1601.95	1337.39
750.304	1366.35	3545.7	2281.58	1713.62	1354.99	1544.85	1348.5
748.763	1387.19	3460.68	2294.14	1744.13	1434.24	1521.86	1336.9
747.222	1399.91	3425.98	2220.72	1695.14	1393.43	1570.24	1315.56
745.68	1342.89	3238.83	2273.83	1701.32	1423.98	1518.05	1357.49
744.138	1383.18	3150.67	2236.12	1733.44	1441.56	1529.12	1360.48
742.596	1369.96	3072.27	2178.96	1700.69	1439.67	1567.75	1334.29
741.054	1355.12	2990.66	2185.04	1719.83	1415.09	1515.59	1312.97
739.512	1395.38	2902.59	2234.88	1656.31	1421.31	1550.97	1341.9
737.969	1343.27	2790.25	2182.62	1738.64	1383.78	1550.68	1349.76
736.425	1338.17	2778.4	2203.28	1691.34	1401.35	1556.87	1341.41
734.882	1388.13	2771.41	2220.69	1645.67	1381.65	1512.85	1331.44
733.338	1339.29	2649.44	2225.14	1677.76	1400.83	1515.81	1297.19
731.794	1366.57	2574.47	2187.49	1638.59	1394.1	1531.73	1292.09
730.25	1384.13	2544.85	2166.04	1656.1	1398.7	1550.87	1320.99
728.705	1343.41	2531.43	2201.25	1720.53	1390.35	1542.49	1333.7
727.161	1360.96	2475.95	2137.73	1657.1	1390.09	1517.93	1341.54
725.615	1372.04	2472.25	2202.05	1626.06	1373.65	1528.98	1321.88
724.07	1386.34	2470.18	2093.26	1659.73	1392.81	1522.23	1342.67
722.524	1340.8	2477.81	2196.39	1633.54	1382.85	1576.94	1329.48
720.978	1371.28	2398.12	2086.02	1697.93	1431.11	1521.67	1348.64
719.432	1396.89	2334.62	2088.87	1642.64	1382.34	1513.3	1330.61
717.885	1378.85	2363.29	2167.69	1639.11	1364.31	1461.29	1344.91
716.339	1381.83	2261.03	2175.38	1638.8	1440.01	1519.21	1331.73
714.791	1392.89	2304.24	2150.74	1693.44	1388.04	1520.54	1370.27
713.244	1384.55	2329.67	2134.18	1636.58	1384.55	1547.73	1310.24
711.696	1368.15	2326.01	2119.25	1605.59	1402.07	1557.13	1348.76
710.148	1395.35	2338.5	2099.48	1645.67	1372.74	1500.32	1314.6
708.6	1456.45	2415.57	2145.92	1643.75	1398.32	1554.94	1349.88
707.051	1410.98	2431.27	2184.27	1641.83	1389.99	1570.8	1343.17
705.503	1405.87	2577.7	2206.46	1683.5	1449.45	1538.23	1378.43
703.953	1397.55	2604.66	2117.3	1650.91	1436.28	1515.35	1352.36
702.404	1398.9	2499.31	2178.22	1694.17	1389.22	1589.29	1337.59
700.854	1382.51	2542.4	2118.13	1671.27	1418	1530.93	1372.83
699.304	1432.26	2427.42	2133.87	1722.58	1412.9	1556.45	1319.35
697.754	1409.41	2402.78	2089.93	1672.27	1422.32	1569.06	1377.16
696.203	1415.6	2329.78	2073.42	1652.61	1405.93	1592.96	1412.38
694.653	1439.52	2289.05	2098.83	1697.44	1441.13	1641.02	1402.45
693.101	1448.93	2238.66	2071.05	1739.03	1434.42	1574.64	1373.18
691.55	1471.22	2197.97	2133.51	1691.98	1453.49	1584.02	1413.21
689.998	1440.34	2245.89	2166.95	1698.11	1435.5	1559.56	1448.39
688.446	1499.67	2116.61	2119.84	1721.96	1433.63	1618.87	1401.41
686.894	1434.97	2154.88	2164.54	1660.45	1433.36	1620.18	1375.38
685.341	1476.57	2119.05	2172.19	1727.77	1492.68	1640.82	1412.16
683.788	1485.96	2234.58	2096.12	1700.08	1469.86	1608.32	1439.27
682.235	1516.27	2238.99	2237.38	1651.48	1479.25	1603.19	1395.55
680.682	1557.83	2315.83	2196.74	1699.45	1470.93	1654.39	1417.82
679.128	1526.97	2280	2207.59	1724.88	1506.05	1663.74	1374.11
677.574	1541.17	2240.97	2245.8	1731	1484.86	1624.82	1473.6
676.02	1537.67	2341.89	2234.12	1741.94	1528.02	1685.64	1418.64
674.465	1514.87	2294.82	2220.84	1722.32	1511.65	1662.82	1450.54
672.91	1566.04	2300.83	2215.61	1783.1	1472.79	1691.45	1464.75
671.355	1577	2240.92	2213.59	1777.95	1488.59	1665.42	1438.75
669.8	1539.75	2182.65	2221.22	1776.01	1509.21	1708.51	1444.92
668.244	1579.63	2146.89	2278.66	1814.25	1465.54	1693.73	1471.97
666.688	1552.03	2115.97	2223.61	1764.11	1482.94	1584.16	1444.38
665.132	1590.3	2179.83	2221.59	1758.96	1498.73	1656.16	1450.54
663.575	1580.37	2091.09	2243.67	1747.4	1528.97	1697.61	1453.49
662.018	1514.24	2121.22	2259.31	1777.58	1483.73	1641.09	1419.5
660.461	1518.77	2098.35	2247.66	1708.22	1475.43	1676.11	1480.24
658.904	1560.23	2044.99	2197.48	1756.06	1462.31	1669.38	1447.86
657.346	1563.15	2091.15	2270.9	1760.55	1460.44	1709.19	1428.34
655.788	1519.54	2151.74	2244.81	1742.57	1448.93	1713.69	1455.35
654.229	1544.92	2189.84	2300.54	1785.57	1435.83	1654.01	1403.75
652.671	1560.68	2150.94	2287.28	1783.63	1477.27	1705.04	1419.53
651.112	1557.18	2174.6	2257.99	1723.96	1507.47	1707.93	1392
649.553	1558.5	2162.98	2270.4	1795.8	1479.93	1697.99	1446.26
647.993	1513.32	2213.87	2321.28	1785.85	1474.85	1716.92	1476.45
646.433	1594.78	2205.45	2277.58	1779.11	1492.21	1697.36	1456.94
644.873	1613.72	2205.04	2371.7	1873.33	1523.98	1730.7	1487.12
643.313	1623.03	2239.88	2286.35	1847.34	1534.91	1701.54	1506.07
641.752	1573.08	2271.51	2378.84	1803.75	1480.16	1771.71	1525.02
640.191	1632.04	2341.56	2314.33	1853.07	1523.13	1702.51	1516.73
638.63	1612.53	2393.97	2334.72	1873.54	1481.22	1726.22	1502.04
637.069	1538.58	2486.38	2379.12	1860.39	1541.78	1684.27	1500.16
635.507	1568.71	2450.71	2346.66	1855.24	1517.49	1707.97	1475.87
633.945	1606.83	2512.67	2338.23	1829.29	1547.61	1733.26	1485.2
632.382	1588.93	2598.61	2304.19	1857.75	1528.13	1712.14	1456.12
630.82	1633.43	2663.73	2342.16	1905.4	1550.24	1739.02	1495.85
629.257	1631.53	2720.82	2381.71	1937.04	1548.35	1708.31	1529.16
627.694	1690.4	2739.5	2408.46	1928.69	1536.87	1781.56	1525.68
626.13	1664.5	2850.92	2419.21	1985.89	1581.36	1794.02	1584.56
624.566	1747.33	2907.95	2412.37	1963.14	1601.85	1848.04	1616.24
623.002	1838.11	2996.92	2443.89	2066.67	1657.49	1873.27	1652.7
621.438	1856.95	2894.09	2520.14	2024.74	1676.36	1912.88	1693.94
619.873	1885.36	3003.8	2524.47	2037.15	1746.36	1995.61	1695.23
618.308	1947.31	3131.04	2463.3	2121.44	1725.27	2020.8	1686.93
616.743	1891.05	3063.38	2480.41	2055.56	1700.99	1910.22	1721.75
615.177	1822.04	3099.54	2487.93	2042.4	1665.54	1879.52	1644.78
613.611	1751.45	3027.12	2490.67	2008.5	1634.9	1856.82	1594.98
612.045	1714.41	2932.38	2507.76	1968.22	1593.09	1792.63	1486.14
610.479	1634.29	2923.85	2524.86	1919.98	1568.86	1750.8	1468.31
608.912	1576.55	2902.57	2414.28	1858.98	1517.5	1771.22	1485.59
607.345	1549.13	2916.39	2426.6	1906.5	1472.55	1753.34	1478.93
605.778	1603.08	2904.68	2371.92	1885.41	1491.42	1686.02	1504.18
604.21	1574.07	2940.82	2468.76	1910.58	1470.41	1706.44	1516.66
602.642	1565.81	3029.57	2484.25	1900.66	1517.97	1714.1	1468.55
601.074	1547.98	3049.74	2475.82	1895.52	1484.22	1667.55	1441.17
599.506	1544.51	3144.81	2406.82	1903.14	1528.57	1756.5	1475.97
597.937	1534.66	3211.15	2444.62	1905.98	1550.6	1694.02	1448.61
596.368	1583.77	3366.71	2389.99	1878.54	1507.29	1696.9	1504.1
594.799	1599.41	3283.24	2327.42	1898.9	1500.64	1736.41	1494.27
593.229	1567.26	3397.31	2393.89	1914.47	1476.47	1724.94	1471.69
591.659	1586.07	3554.34	2406.18	1882.27	1508.04	1718.25	1474.6
590.089	1560.31	3618.95	2348.42	1947.2	1539.61	1765.69	1507.77
588.518	1583.89	3629.43	2357.54	1930.92	1556.83	1751.04	1520.22
586.948	1596.33	3539.63	2360.28	1893.95	1551.77	1734.8	1456.28
585.377	1591.26	3543.74	2450.55	1949.3	1540.34	1745.62	1519.66
583.805	1590.97	3447.63	2467.59	1925.07	1602.11	1759.61	1511.42
582.234	1603.4	3400.86	2432.14	1927.9	1560.45	1752.92	1530.23
580.662	1668.31	3398.64	2428.51	1994.33	1552.21	1824.16	1566.52
579.089	1690.26	3444.12	2474.17	1924	1590.08	1809.52	1534.43
577.517	1739.23	3427.58	2507.1	1958.62	1572.3	1874.36	1518.25
575.944	1761.16	3485.76	2447.82	2002.76	1557.7	1850.17	1606.98
574.371	1740.17	3562.98	2487.1	2067.55	1592.38	1883.2	1571.72
572.797	1703.31	3679.9	2527.95	2038.56	1654.05	1925.75	1630.22
571.224	1853.91	3788.83	2554.48	2060.43	1647.39	1877.74	1682.34
569.65	1883.74	3946.96	2549.25	2082.28	1667.73	1950.45	1694.73
568.075	1846.87	4181.26	2636.11	2164.47	1675.36	1934.21	1696.01
566.501	1965.6	4255.1	2675.32	2167.25	1697.28	2027.53	1749.67
564.926	1950.95	4246.38	2555.76	2204.94	1728.71	2073.18	1730.3
563.351	2022.01	4207.5	2652.1	2215.64	1758.55	2090.26	1798.23
561.775	2070.83	4108.33	2581.79	2258.08	1832.8	2113.67	1870.89
560.2	2141.84	3960.02	2673.33	2262.42	1841.98	2127.56	1867.37
558.624	2152.55	3960.87	2656.97	2407.93	1878.12	2150.96	1973.3
557.047	2280.61	3809.47	2781.77	2361.49	1884.12	2266.33	1968.17
555.471	2321.41	3881.71	2773.33	2481.56	1963.05	2337.27	2002.69
553.894	2370.13	3754.16	2858.42	2504.88	1975.37	2379.64	2073.66
552.316	2485.4	3751.87	2800.83	2590.01	1973.42	2388.71	2184.23
550.739	2660.85	3751.18	2889.06	2675.11	2117.27	2532.48	2288.42
549.161	2733.24	3839.21	3054.89	2774.44	2104.2	2647.68	2340.29
547.583	2897.49	3950.98	3063.83	2921.25	2279.65	2868.97	2484.01
546.005	3079.1	3964.5	3189.97	2947.64	2310.91	2952.39	2583.34
544.426	3336.65	4022.36	3232.14	3132.37	2441.92	3073.78	2829.9
542.847	3552.95	4110.27	3391.45	3336.03	2595.05	3321.79	2941.79
541.268	3791.32	4259.9	3511.13	3506.38	2835.18	3468.39	3178.7
539.688	4050.19	4474.36	3752.63	3801.7	3007.17	3804.86	3448.75
538.108	4486.18	4816.91	3998.8	4117.48	3207.58	4195.02	3736.11
536.528	5069.16	5121.37	4428.39	4554.96	3596.19	4600.85	4149.94
534.948	5768.97	5572.82	4723.38	5227.98	4006.8	5245.38	4837.27
533.367	6648.82	6253.43	5345.63	6000.39	4543.78	6047.83	5627.14
531.786	7993.23	7129.87	6236.46	7238.97	5512.25	7408.17	6581.17
530.205	10143.4	8483.43	7605.99	9043.08	6967.29	9171.14	8358.53
528.623	13356.6	10660	10105.2	11690.6	9133.08	12006.7	10925.6
527.041	18194.8	14160.1	14085.9	15604.6	12657.2	16421.6	14925
525.459	25709.4	18851.9	20304	21643.9	18221.5	23058.1	21076.7
523.877	35245	25257.6	28955.9	28703.1	25630.4	31309.7	28545.1
522.294	44279.4	31403.4	37351.8	34448.7	31908.9	39079.8	35235.3
520.711	45024.5	32214	37384.3	33892.7	31081.8	38728.2	35519.3
519.127	35411.6	26115.1	27147.7	26591.9	22666.7	29571.3	27184
517.544	23349.2	17735.7	16861.1	17604.7	14422.2	19431.1	18041.9
515.96	15300.2	12205.1	10966.1	11561.2	9466.74	12834.9	11870.5
514.375	10467	8724.89	7741.78	8242.01	6695.55	8789.59	8104.73
512.791	7375.89	6670.64	6042.7	6183.12	4791.56	6490.78	5837.6
511.206	5621.98	5268.64	4979.97	4770.17	3897.84	4983.12	4470.45
509.621	4428.62	4550.06	4207.82	3906.58	3196.87	4138.42	3627.43
508.035	3658.29	3943.7	3787.59	3328.73	2772.1	3371.3	2984.98
506.45	3066.4	3594.55	3520.45	2881.94	2382.18	2982.84	2697.49
504.864	2706.44	3248.68	3284.93	2700.14	2216.23	2618.17	2271.39
503.277	2406.51	3134.6	3090.48	2527.86	1985.72	2330.86	2130.71
501.691	2180.74	2908.7	3006.39	2297.34	1923.9	2228.01	1966.44
500.104	2049.57	2799.46	2876.65	2202.39	1788.06	2114.16	1825.87
498.517	1869.63	2661.9	2704.43	2064.94	1710.55	1945.24	1675.9
496.929	1744.88	2587.39	2733.85	1916.53	1644.09	1929.13	1599.99
495.341	1661.1	2460.95	2695.55	1879.96	1617.02	1843.74	1519.4
493.753	1634.03	2446.32	2643.1	1868.59	1549.02	1800.9	1500.22
492.165	1555.03	2393.93	2551.32	1794.27	1514.11	1699.83	1462.17
490.576	1534.28	2343.13	2582.32	1745.15	1521.7	1660.17	1362.76
488.987	1445.89	2309.65	2588.13	1716.51	1460.05	1563.89	1357.79
487.398	1363.83	2211.69	2493.27	1702.03	1462.93	1590.34	1324.5
485.808	1305.38	2250.6	2494.38	1741.03	1437.49	1558.59	1332.12
484.218	1305.14	2195.15	2481.33	1668.37	1427.79	1547.3	1301.99
482.628	1301.75	2230.9	2421.13	1683.79	1366.21	1502.99	1268.73
481.038	1279.5	2117.31	2447.4	1633.17	1400.54	1475.98	1257.5
479.447	1219.54	2148.34	2442.23	1656.44	1338.98	1475.71	1239.97
477.856	1247.6	2111.81	2468.49	1610.57	1354.45	1478.58	1238.17
476.265	1217.52	2205.67	2567	1693.53	1376.19	1374.62	1184.53
474.673	1209.44	2184.84	2533.54	1609.97	1374.36	1448.18	1196.87
473.081	1177.8	2311.64	2503.23	1600.24	1352.12	1435.35	1201.36
471.489	1204.28	2432.11	2587.55	1675.31	1337.74	1406.82	1208.99
469.896	1200.91	2588.64	2613.75	1635.75	1350.05	1442.67	1152.25
468.303	1155.17	2650.93	2713.72	1657.42	1316.83	1406.3	1175.58
466.71	1159.67	2692.81	2593.95	1611.61	1318.16	1390.34	1175.36
465.117	1154.74	2736.24	2720.55	1644.25	1335.17	1437.15	1153.17
463.523	1105.9	2831.42	2665.14	1628.26	1291	1413.36	1126.29
461.929	1152.74	2923.42	2768.15	1596.59	1309.58	1408.39	1162.15
460.335	1083.53	3076.55	2730.01	1685.67	1329.72	1356.38	1149.39
458.74	1099.01	3209.24	2626.02	1675.95	1299.69	1401.59	1131.93
457.145	1153.67	3497.05	2691.37	1656.83	1330.79	1387.22	1119.18
455.55	1147.18	3579.46	2634.45	1680.03	1286.66	1402.64	1150.32
453.954	1198.68	3857.71	2602.62	1682.85	1313.06	1392.97	1203.38
452.359	1203.15	4109.21	2600.57	1734.23	1386.45	1424.05	1173.39
450.763	1210.76	4319.9	2549.96	1669.69	1358	1386.19	1193.53
449.166	1196.44	4521.11	2497.81	1661.55	1338.95	1443.87	1202.71
447.569	1232.23	4593.85	2483.25	1728.57	1329.31	1457.7	1232.23
445.972	1217.91	4754.24	2479.66	1721.98	1388.54	1507.52	1221.04
444.375	1227.08	4870.74	2396.24	1684.1	1319.42	1461.85	1212.99
442.778	1294.14	4810.37	2442.74	1727.6	1358.29	1517.91	1236.24
441.18	1276.68	4828.24	2401.61	1785.17	1403.41	1506.67	1256.34
439.581	1334.32	4846.11	2398.03	1803.61	1442.26	1457.9	1254.55
437.983	1332.51	4671.61	2389.76	1761.04	1384.12	1473.27	1293.41
436.384	1318.19	4666.05	2473.76	1781.04	1404.19	1540.23	1308.81
434.785	1402.37	4555.74	2410.76	1757.26	1443.02	1585.28	1316.38
433.186	1306.76	4418.9	2427.5	1778.81	1423.99	1544.35	1331.77
431.586	1351.83	4397.76	2514.57	1812.86	1462.79	1540.93	1308.08
429.986	1328.14	4286	2442.22	1767.21	1426.58	1568.77	1298.46
428.386	1266.97	4202.4	2455.83	1776.26	1421.63	1588.79	1284.15
426.785	1363.57	4182.87	2541.28	1754.06	1436.98	1576	1265.17
425.184	1299.29	4157.11	2543.92	1866.17	1396.11	1622.55	1294.61
423.583	1317.78	4251.57	2646.5	1892.36	1497.34	1597.27	1285
421.982	1309.73	4149.31	2692.84	1916.99	1478.33	1606.34	1301.93
420.38	1323.54	4271.84	2968.59	1947.85	1562.33	1709.05	1259.54
418.778	1282.72	4505.11	3277.01	2206.52	1613.54	1799.24	1292.08
417.176	1327.72	4568.24	3510.43	2318.44	1692.81	1831.66	1310.56
415.573	1343.07	5075.92	3813.96	2569.16	1742.41	1890.6	1296.28
413.97	1302.27	5641.11	4182.87	2827.57	1785.75	1993.18	1388.05
412.367	1314.5	6723.78	4667.04	3184.13	1888.33	1997.49	1367.52
410.763	1317.38	8711.84	5190	3565.49	1958.14	2050.12	1385.97
409.159	1332.72	12170.6	5642.62	3549.24	2041.94	2046.62	1337.4
407.555	1321.56	17643.2	5403.13	3325.72	2035.33	1902.86	1326.24
405.951	1311.97	24735.7	4724.32	3089.82	1890.04	1768.5	1254.31
404.346	1293.03	30090.1	3757.56	2910.09	1710.53	1715.21	1316.39
402.741	1311.48	29070.5	3160.31	2418.91	1535.77	1640.12	1320.82
401.135	1320.57	23008.8	2748.6	2169.29	1521.46	1610.23	1278.53
399.53	1310.99	16121.1	2514.54	1997.62	1458.9	1585.02	1332.78
397.924	1281.16	11423.1	2599.69	1899.17	1449.29	1578.49	1246.92
396.318	1371.2	8333.01	2484.03	1856.8	1456.8	1554.85	1293.38
394.711	1327.37	6756.66	2517.8	1917.14	1442.52	1570.12	1310.25
393.104	1350.46	6433.35	2666.69	1997.68	1515.38	1622.73	1286.67
391.497	1333.09	7178.8	2869.96	2135.75	1536.87	1651.98	1287.98
389.889	1345.29	10186.9	3367.11	2415.3	1601.9	1713.88	1343.73
388.282	1334.15	16798.2	3937.15	2899.99	1750.88	1783.53	1346.59
386.674	1347.89	27264.2	4172.72	3238.37	1918.46	1842.28	1377.43
385.065	1341.42	28356.4	4195.26	3189.58	1866.8	1876.13	1409.82
383.457	1394.01	14633.3	3812.17	2685.46	1739.02	1864.9	1403.34
381.848	1395.31	7737.89	3864.28	2441.01	1670.33	1861.44	1375.11
380.238	1354.65	5340.94	3694.23	2317.83	1696.43	1789.64	1315.82
378.629	1352.85	4765.26	3524.24	2261.48	1635.53	1784.64	1334.21
377.019	1416.26	4458.44	3371.39	2115.08	1577.77	1802.94	1340.17
375.409	1420.66	4344.26	3195.32	2120.9	1610.08	1810.37	1288.68
373.798	1431.26	4230.13	3250.6	2092.56	1588.05	1837.97	1390.9
372.188	1444.96	4100.52	3105.65	2030.08	1584.64	1722.78	1337.87
370.576	1432.28	3882.51	3038.35	1987.81	1512.97	1691.42	1351.58
368.965	1380.81	3751.46	2932.28	1936.24	1543.71	1688	1337.37
367.353	1444.15	3542.9	2905.36	1945.18	1563.59	1715.61	1368.14
365.741	1442.33	3492.61	2898.61	1964.98	1510.57	1650.15	1367.89
364.129	1469.97	3318.29	2812.79	1946	1496.33	1719.62	1370.73
362.517	1392.18	3196.74	2709.94	1896.03	1542.56	1688.29	1351.87
360.904	1416.72	3138.79	2763.69	1923.58	1500.42	1718.97	1388.82
359.29	1456.75	3037.47	2707.38	1889.12	1532.68	1683.01	1351.37
357.677	1405.34	2996.62	2678.98	1882.57	1502.96	1738.47	1389.85
356.063	1422.12	2900.01	2737.35	1886.87	1544.5	1662.24	1367.9
354.449	1438.89	2873.14	2631.52	1911.29	1514.79	1638.7	1355.25
352.835	1455.66	2869.5	2648.06	1856.74	1516.05	1722.01	1389.07
351.22	1463.13	2864.32	2627.43	1831.62	1477.06	1709.3	1360.94
349.605	1421.06	2721.37	2555.73	1862.23	1489.17	1656.35	1374.62
347.99	1451.74	2751.81	2615.62	1840.22	1549.25	1631.28	1366.62
346.374	1488.61	2715.71	2543.95	1856.89	1460.76	1663.47	1384.93
344.758	1452.75	2678.07	2574.41	1803.95	1506.9	1619.84	1434.18
343.142	1478.77	2700.77	2550.73	1826.81	1497.33	1650.47	1390.6
341.526	1446.02	2672.43	2510.04	1787.8	1500.15	1654.8	1429.01
339.909	1489.04	2696.67	2563.69	1810.66	1489.04	1703.97	1383.9
338.292	1516.59	2603.4	2546.2	1736.12	1488.76	1688.19	1437.75
336.674	1528.67	2589.01	2524.09	1802.26	1503.94	1692.51	1391.11
335.056	1531.48	2600.88	2523.62	1786.47	1494.39	1689.11	1418.66
333.438	1532.74	2538.59	2529.32	1804.67	1452.39	1677.97	1426.12
331.82	1503.1	2547.39	2538.12	1852.22	1489.19	1699.29	1418.13
330.202	1544.52	2520.65	2526.83	1734.49	1488.92	1740.67	1422.5
328.583	1519.52	2538.71	2459.96	1780.5	1499.45	1653.87	1474.74
326.963	1513.06	2447.14	2407	1818.76	1509.97	1696.79	1440.5
325.344	1505.06	2506.89	2508.43	1819.96	1492.71	1713.45	1412.44
323.724	1569.6	2524.94	2466.29	1867.47	1450.76	1728.56	1532.56
322.104	1575.48	2513.66	2417.99	1822.37	1524.56	1715.9	1410.37
320.483	1561.3	2493.14	2334.23	1815.86	1505.76	1644.61	1522.73
318.863	1571.8	2501.92	2281.35	1835.57	1579.51	1706	1496.22
317.242	1613.15	2533.84	2387.33	1844.48	1540.66	1693.34	1525.24
315.62	1600.51	2547.24	2334.46	1878.05	1524.95	1748.53	1517.25
313.999	1686.54	2554.48	2384.9	1851.49	1524.67	1715.83	1538.54
312.377	1673.89	2555.54	2365.95	1824.94	1561.38	1772.54	1538.26
310.754	1673.58	2576.63	2363.97	1850.8	1558	1782.99	1594.99
309.132	1708.7	2606.97	2397.42	1884.35	1616.26	1864.32	1608.55
307.509	1760.76	2604.94	2429.32	1928.67	1639.06	1834.7	1663.71
305.886	1806.63	2513.58	2453.51	2037.66	1692.66	1886.72	1675.72
304.262	1787.82	2500.79	2466.91	2014.18	1619.97	1890.99	1703.12
302.638	1832.13	2561.9	2523.41	1999.95	1676.63	1870.62	1707.42
301.014	1802.54	2527.56	2533.72	1925.68	1616.28	1897.98	1623.98
299.39	1728.33	2442.44	2527.08	1920.71	1628.29	1849.91	1672.92
297.765	1655.68	2377.35	2460.44	1892.65	1612.6	1797.25	1543.36
296.14	1687.68	2403.06	2478.44	1855.37	1578.45	1783.06	1552.3
294.515	1721.2	2336.47	2417.99	1885.79	1519.7	1696.59	1530.47
292.889	1654.75	2422.15	2385.24	1860.83	1519.42	1757.79	1539.41
291.263	1631.38	2301.77	2334.05	1857.4	1539.12	1815.89	1502.22
289.637	1597.25	2275.2	2313.63	1818.62	1566.51	1718.7	1509.63
288.011	1653.82	2250.18	2307.05	1789.08	1506.27	1719.91	1492.44
286.384	1628.92	2321.98	2192.9	1719.59	1475.25	1676.56	1484.47
284.757	1628.62	2310.79	2170.98	1768.43	1504.17	1703.9	1493.41
283.129	1620.63	2225.87	2199.76	1732.77	1503.88	1651.35	1465.48
281.501	1571.18	2216.24	2147.13	1772.38	1426.81	1704.8	1526.64
279.873	1600.06	2251.14	2166.69	1722.91	1457.25	1636.91	1466.47
278.245	1592.08	2259.93	2071.09	1721.05	1487.69	1664.24	1489.22
276.616	1545.74	2296.35	2204.25	1679.28	1478.2	1651.65	1502.76
274.987	1579.21	2191.56	2122.49	1751.1	1454.9	1635.99	1418.07
273.358	1574.31	2223.37	2112.89	1704.73	1503.73	1638.76	1454.63
271.728	1541.8	2186.13	2123.23	1722.82	1481.97	1686.01	1475.83
270.098	1539.97	2176.52	2184.19	1707.16	1516.97	1609	1443.34
268.468	1555.02	2117.83	2157.71	1748.25	1459.94	1630.16	1476.81
266.838	1556.26	2201.77	2227.83	1754.05	1450.47	1645.19	1435.13
265.207	1552.9	2155.36	2201.35	1764.45	1465.52	1598.89	1427.2
263.576	1560.28	2181.01	2236.19	1708.95	1460.65	1644.57	1426.93
261.944	1512.48	2157.62	2114.71	1739.27	1440.46	1641.2	1432.79
260.313	1519.85	2149.55	2197.05	1784.91	1480.02	1637.83	1429.46
258.681	1501.19	2169.06	2204.29	1744.75	1524.16	1663.56	1441.45
257.048	1510.09	2185.5	2194.69	1753.61	1438.11	1632.62	1442.71
255.416	1488.37	2234.09	2287.69	1762.47	1447.03	1688.97	1445.5
253.783	1485.03	2196.93	2219.89	1768.26	1462.07	1662.62	1428.39
252.149	1524.55	2164.37	2247.03	1786.3	1474.04	1601.08	1438.83
250.516	1522.73	2188.45	2157.84	1761.47	1515.08	1649.76	1404.89
248.882	1528.57	2217.11	2197.22	1707.59	1461.24	1658.63	1387.8
247.248	1477.8	2172.33	2163.15	1769.99	1465.56	1649.14	1422.72
245.613	1498.93	2214.75	2150.51	1772.72	1448.46	1625.88	1411.75
243.978	1497.12	2113.4	2191.4	1789.21	1466.54	1686.75	1413.01
242.343	1483.08	2198.63	2239.91	1765.94	1476.96	1684.9	1452.5
240.708	1510.32	2178.34	2218.09	1748.79	1491.97	1664.71	1397.2
239.072	1520.73	2214.61	2220.73	1766.8	1476.41	1659.81	1425.97
237.436	1538.78	2243.23	2218.78	1800.09	1486.83	1650.33	1413.48
235.8	1503.35	2248.92	2316.14	1808.91	1439.19	1630.16	1396.41
234.163	1503.07	2349.31	2352.37	1796.35	1496.96	1674.15	1382.4
232.526	1524.17	2228.22	2330.55	1847.94	1472.24	1670.78	1400.47
230.889	1471.97	2305.68	2293.46	1862.86	1513.2	1694.9	1430.74
229.251	1448.79	2293.03	2328.14	1836.56	1468.64	1638.1	1396.89
227.613	1506.52	2271.23	2318.55	1822.48	1472.94	1621	1498.89
225.975	1403.99	2296.75	2325.74	1811.45	1428.41	1590.17	1689.37
224.337	1403.73	2317.67	2223.08	1736.35	1444.92	1560.88	1344.22
222.698	1359.22	2294.36	2208.93	1765.01	1412.62	1656.7	1313.46
221.059	1337.61	2210.04	2197.84	1767.73	1412.35	1624.35	1264.4
219.419	1370.91	2291.97	2183.7	1765.87	1422.76	1550.85	1259.59
217.78	1320.34	2343.38	2168.04	1710.65	1349.31	1520.07	1299
216.14	1332.29	2297.2	2156.96	1730.14	1371.92	1535.03	1297.23
214.499	1316.8	2272.39	2165.7	1685.62	1377.76	1510.35	1251.26
212.859	1283.02	2307.01	2183.58	1670.06	1360.74	1476.54	1234.26
211.218	1328.49	2337.04	2134.42	1684.99	1330.01	1515.88	1259.93
209.576	1325.19	2379.25	2152.29	1716.66	1357.18	1552.15	1282.54
207.935	1286.87	2292	2094.02	1705.67	1338.65	1525.97	1236.61
206.293	1269.88	2230.66	2084.49	1667.29	1379.51	1489.14	1275.97
204.651	1322.92	2333.76	2138.9	1656.32	1347.28	1459.93	1277.25
203.008	1301.36	2351.59	2109.58	1613.39	1350.07	1459.66	1245.05
201.365	1322.42	2377.01	2156.36	1664.82	1326.99	1498.95	1241.77
199.722	1331.3	2376.57	2122.48	1664.51	1331.3	1489.54	1247.62
198.079	1296.06	2421.75	2157.07	1677.89	1373.65	1524.25	1235.22
196.435	1277.57	2497.34	2121.68	1679.09	1368.82	1467.68	1300.38
194.791	1260.6	2449.74	2156.25	1668.13	1341.2	1526.71	1242.35
193.147	1283.17	2353.49	2228.82	1657.17	1339.42	1483.86	1271.01
191.502	1308.77	2305.93	2178.24	1710.06	1366.53	1474.46	1255.57
189.857	1290.29	2276.62	2142.88	1689.99	1341.96	1468.1	1235.57
188.212	1280.93	2216.93	2128.8	1651.68	1350.82	1487.58	1218.63
186.566	1297.4	2205.88	2135.99	1674.16	1335.38	1487.3	1263.97
184.92	1315.38	2257.1	2155.34	1616.12	1329.05	1476.38	1221.21
183.274	1275.65	2218.71	2154.93	1678.08	1319.69	1451.81	1219.46
181.628	1293.63	2212.22	2110.49	1633.73	1337.66	1486.46	1245.04
179.981	1304.01	2170.82	2184.48	1700.22	1329.82	1492.25	1240.25
178.334	1279.48	2164.34	2152.2	1640.71	1309.83	1484.38	1217.25
176.686	1282.27	2148.76	2186.69	1685.92	1342.97	1499.27	1262.55
175.038	1304.79	2107.39	2145.32	1658.3	1339.68	1450.44	1257.76
173.39	1269.65	2132.78	2131.26	1642.81	1392.52	1419.83	1265.1
171.742	1324.01	2061.09	2162.71	1686.49	1301.26	1515.11	1226.95
170.093	1281.31	2127.42	2142.59	1683.14	1297.99	1514.82	1228.23
168.444	1279.55	2125.51	2105.8	1646.43	1308.35	1502.41	1282.58
166.795	1273.24	2181.19	2132.68	1614.29	1335.39	1480.9	1242.93
165.145	1318.47	2156.53	2115.61	1677.64	1348.78	1451.83	1236.63
163.495	1300.04	2121.27	2100.06	1624.29	1336.4	1472.77	1277.31
161.845	1319.49	2204.19	2072.4	1595.2	1342.21	1460.37	1228.59
160.194	1311.67	2256.79	2135.62	1629.74	1364.68	1463.13	1241.99
158.543	1323.53	2239.71	2092.82	1646.09	1343.22	1482.54	1299.3
156.892	1335.4	2322.56	2051.54	1642.75	1379.3	1500.43	1264.23
155.241	1385.1	2291.85	2073.86	1677.26	1350.28	1507.71	1301.84
153.589	1315.22	2256.6	2056.82	1692.07	1383.32	1536.19	1313.7
151.937	1287.73	2201.7	2053.41	1611.56	1340.69	1448.13	1298.32
